1,1,64331
1,2,64311
1,3,64304
1,4,64354
1,5,64318
1,6,64325
1,7,64356
1,8,64311
1,9,64329
1,10,64314
1,11,64364
1,12,64356
1,13,64346
1,14,64313
1,15,64363
1,16,64338
1,17,64366
1,18,64334
1,19,64343
1,20,64353
1,21,64352
1,22,64370
1,23,64366
1,24,64398
1,25,64349
1,26,64397
1,27,64397
1,28,64366
1,29,64382
1,30,64421
1,31,64408
1,32,64390
1,33,64357
1,34,64365
1,35,64387
1,36,64383
1,37,64371
1,38,64422
1,39,64397
1,40,64396
1,41,64383
1,42,64375
1,43,64404
1,44,64430
1,45,64390
1,46,64382
1,47,64407
1,48,64458
1,49,64409
1,50,64420
1,51,64448
1,52,64472
1,53,64448
1,54,64471
1,55,64475
1,56,64495
1,57,64481
1,58,64488
1,59,64527
1,60,64518
1,61,64522
1,62,64580
1,63,64550
1,64,64567
1,65,64578
1,66,64610
1,67,64614
1,68,64654
1,69,64629
1,70,64655
1,71,64658
1,72,64723
1,73,64709
1,74,64726
1,75,64684
1,76,64685
1,77,64642
1,78,64669
1,79,64682
1,80,64663
1,81,64679
1,82,64659
1,83,64623
1,84,64640
1,85,64647
1,86,64607
1,87,64610
1,88,64580
1,89,64604
1,90,64608
1,91,64587
1,92,64577
1,93,64575
1,94,64560
1,95,64567
1,96,64556
1,97,64545
1,98,64581
1,99,64504
1,100,64523
1,101,64537
1,102,64534
1,103,64522
1,104,64575
1,105,64559
1,106,64597
1,107,64643
1,108,64655
1,109,64692
1,110,64809
1,111,65005
1,112,65253
1,113,65776
1,114,66978
1,115,68879
1,116,70127
1,117,70953
1,118,72362
1,119,73468
1,120,72571
1,121,71319
1,122,71071
1,123,70299
1,124,68299
1,125,67251
1,126,66897
1,127,66312
1,128,65713
1,129,65472
1,130,65444
1,131,65341
1,132,65180
1,133,65214
1,134,65241
1,135,65091
1,136,65009
1,137,65038
1,138,64908
1,139,64868
1,140,64843
1,141,64779
1,142,64746
1,143,64738
1,144,64739
1,145,64639
1,146,64652
1,147,64647
1,148,64586
1,149,64619
1,150,64542
1,151,64611
1,152,64526
1,153,64546
1,154,64558
1,155,64524
1,156,64451
1,157,64511
1,158,64514
1,159,64493
1,160,64509
1,161,64474
1,162,64485
1,163,64480
1,164,64432
1,165,64449
1,166,64420
1,167,64443
1,168,64455
1,169,64431
1,170,64471
1,171,64499
1,172,64410
1,173,64465
1,174,64456
1,175,64434
1,176,64445
1,177,64453
1,178,64422
1,179,64492
1,180,64498
1,181,64455
1,182,64431
1,183,64521
1,184,64556
1,185,64575
1,186,64629
1,187,64677
1,188,64787
1,189,64900
1,190,65062
1,191,65254
1,192,65607
1,193,66143
1,194,66871
1,195,67696
1,196,69443
1,197,71834
1,198,72995
1,199,73636
1,200,74440
1,201,74218
1,202,73437
1,203,72134
1,204,71022
1,205,69774
1,206,68694
1,207,67692
1,208,67056
1,209,66488
1,210,66105
1,211,65850
1,212,65608
1,213,65511
1,214,65478
1,215,65356
1,216,65315
1,217,65253
1,218,65207
1,219,65164
1,220,65101
1,221,65049
1,222,65022
1,223,64991
1,224,64941
1,225,64950
1,226,64866
1,227,64816
1,228,64840
1,229,64803
1,230,64798
1,231,64771
1,232,64755
1,233,64729
1,234,64794
1,235,64733
1,236,64776
1,237,64786
1,238,64739
1,239,64725
1,240,64735
1,241,64777
1,242,64724
1,243,64764
1,244,64755
1,245,64743
1,246,64737
1,247,64782
1,248,64699
1,249,64746
1,250,64766
1,251,64773
1,252,64736
1,253,64720
1,254,64784
1,255,64772
1,256,64827
1,257,64750
1,258,64752
1,259,64795
1,260,64772
1,261,64749
1,262,64756
1,263,64766
1,264,64773
1,265,64775
1,266,64792
1,267,64790
1,268,64760
1,269,64770
1,270,64784
1,271,64773
1,272,64798
1,273,64812
1,274,64815
1,275,64791
1,276,64809
1,277,64800
1,278,64831
1,279,64805
1,280,64838
1,281,64786
1,282,64862
1,283,64893
1,284,64882
1,285,64828
1,286,64840
1,287,64878
1,288,64841
1,289,64867
1,290,64836
1,291,64891
1,292,64858
1,293,64864
1,294,64801
1,295,64887
1,296,64838
1,297,64825
1,298,64870
1,299,64829
1,300,64821
1,301,64832
1,302,64836
1,303,64872
1,304,64843
1,305,64909
1,306,64823
1,307,64829
1,308,64836
1,309,64809
1,310,64861
1,311,64820
1,312,64779
1,313,64806
1,314,64800
1,315,64761
1,316,64719
1,317,64755
1,318,64821
1,319,64727
1,320,64780
1,321,64774
1,322,64778
1,323,64839
1,324,64838
1,325,64808
1,326,64881
1,327,64872
1,328,64875
1,329,64916
1,330,64835
1,331,64894
1,332,64846
1,333,64858
1,334,64902
1,335,64861
1,336,64855
1,337,64777
1,338,64841
1,339,64825
1,340,64843
1,341,64801
1,342,64775
1,343,64794
1,344,64837
1,345,64758
1,346,64812
1,347,64805
1,348,64804
1,349,64797
1,350,64854
1,351,64789
1,352,64766
1,353,64841
1,354,64762
1,355,64855
1,356,64796
1,357,64792
1,358,64820
1,359,64779
1,360,64836
1,361,64829
1,362,64805
1,363,64800
1,364,64829
1,365,64790
1,366,64804
1,367,64832
1,368,64810
1,369,64821
1,370,64787
1,371,64826
1,372,64786
1,373,64804
1,374,64824
1,375,64861
1,376,64818
1,377,64805
1,378,64800
1,379,64816
1,380,64829
1,381,64811
1,382,64837
1,383,64804
1,384,64811
1,385,64825
1,386,64860
1,387,64869
1,388,64811
1,389,64817
1,390,64839
1,391,64818
1,392,64852
1,393,64825
1,394,64798
1,395,64848
1,396,64766
1,397,64857
1,398,64834
1,399,64831
1,400,64860
1,401,64805
1,402,64806
1,403,64883
1,404,64874
1,405,64840
1,406,64883
1,407,64874
1,408,64910
1,409,64867
1,410,64878
1,411,64876
1,412,64870
1,413,64844
1,414,64927
1,415,64878
1,416,64856
1,417,64914
1,418,64885
1,419,64907
1,420,64842
1,421,64878
1,422,64865
1,423,64837
1,424,64944
1,425,64837
1,426,64854
1,427,64918
1,428,64898
1,429,64864
1,430,64843
1,431,64906
1,432,64874
1,433,64888
1,434,64895
1,435,64879
1,436,64913
1,437,64854
1,438,64877
1,439,64886
1,440,64844
1,441,64842
1,442,64849
1,443,64877
1,444,64902
1,445,64880
1,446,64871
1,447,64886
1,448,64863
1,449,64857
1,450,64856
1,451,64888
1,452,64886
1,453,64895
1,454,64865
1,455,64888
1,456,64905
1,457,64837
1,458,64877
1,459,64890
1,460,64887
1,461,64933
1,462,64897
1,463,64896
1,464,64877
1,465,64915
1,466,64931
1,467,64872
1,468,64853
1,469,64946
1,470,64932
1,471,64939
1,472,64915
1,473,64950
1,474,64942
1,475,64900
1,476,64900
1,477,64959
1,478,64953
1,479,64947
1,480,64958
1,481,64897
1,482,64914
1,483,64893
1,484,64863
1,485,64915
1,486,64922
1,487,64881
1,488,64911
1,489,64895
1,490,64933
1,491,64957
1,492,64947
1,493,64903
1,494,64934
1,495,64884
1,496,64932
1,497,64902
1,498,64936
1,499,64872
1,500,64923
1,501,64943
1,502,64946
1,503,64965
1,504,64943
1,505,64885
1,506,64896
1,507,64931
1,508,64958
1,509,64875
1,510,64888
1,511,64922
1,512,64945
1,513,64964
1,514,64956
1,515,64946
1,516,64907
1,517,64928
1,518,64882
1,519,64912
1,520,64994
1,521,64964
1,522,64996
1,523,64961
1,524,64993
1,525,64954
1,526,65005
1,527,65028
1,528,65019
1,529,65069
1,530,65125
1,531,65118
1,532,65051
1,533,65013
1,534,64977
1,535,64977
1,536,65012
1,537,65016
1,538,65001
1,539,65051
1,540,64997
1,541,65028
1,542,65016
1,543,64970
1,544,64943
1,545,64937
1,546,64959
1,547,64962
1,548,64979
1,549,64971
1,550,64991
1,551,65027
1,552,65004
1,553,64997
1,554,65034
1,555,64970
1,556,65028
1,557,64986
1,558,65072
1,559,65118
1,560,65070
1,561,65095
1,562,65126
1,563,65158
1,564,65164
1,565,65232
1,566,65435
1,567,65542
1,568,65693
1,569,65877
1,570,66112
1,571,66352
1,572,66406
1,573,66495
1,574,66376
1,575,66190
1,576,66079
1,577,65777
1,578,65661
1,579,65451
1,580,65334
1,581,65259
1,582,65137
1,583,65117
1,584,65091
1,585,65072
1,586,65061
1,587,65048
1,588,65045
1,589,65039
1,590,65046
1,591,65035
1,592,65024
1,593,65014
1,594,65056
1,595,65041
1,596,64974
1,597,64949
1,598,65065
1,599,64991
1,600,65048
1,601,64992
1,602,65000
1,603,65025
1,604,64985
1,605,65023
1,606,65071
1,607,65032
1,608,64997
1,609,65000
1,610,65012
1,611,65012
1,612,64968
1,613,65021
1,614,65010
1,615,64965
1,616,65034
1,617,65059
1,618,65066
1,619,65051
1,620,65072
1,621,65024
1,622,65021
1,623,65056
1,624,65083
1,625,65079
1,626,65029
1,627,65055
1,628,65085
1,629,65117
1,630,65122
1,631,65101
1,632,65091
1,633,65108
1,634,65108
1,635,65108
1,636,65109
1,637,65163
1,638,65135
1,639,65185
1,640,65108
1,641,65118
1,642,65195
1,643,65259
1,644,65196
1,645,65204
1,646,65182
1,647,65214
1,648,65285
1,649,65362
1,650,65387
1,651,65412
1,652,65514
1,653,65592
1,654,65684
1,655,65786
1,656,65863
1,657,65909
1,658,66086
1,659,66214
1,660,66276
1,661,66335
1,662,66350
1,663,66367
1,664,66226
1,665,66245
1,666,66128
1,667,66034
1,668,65978
1,669,65908
1,670,65857
1,671,65762
1,672,65682
1,673,65642
1,674,65615
1,675,65564
1,676,65519
1,677,65459
1,678,65442
1,679,65444
1,680,65373
1,681,65445
1,682,65338
1,683,65313
1,684,65338
1,685,65385
1,686,65378
1,687,65369
1,688,65361
1,689,65389
1,690,65446
1,691,65506
1,692,65483
1,693,65585
1,694,65591
1,695,65635
1,696,65623
1,697,65716
1,698,65666
1,699,65616
1,700,65598
1,701,65606
1,702,65519
1,703,65561
1,704,65462
1,705,65374
1,706,65409
1,707,65390
1,708,65395
1,709,65365
1,710,65398
1,711,65362
1,712,65365
1,713,65316
1,714,65330
1,715,65329
1,716,65323
1,717,65277
1,718,65270
1,719,65273
1,720,65228
1,721,65267
1,722,65193
1,723,65179
1,724,65170
1,725,65215
1,726,65177
1,727,65187
1,728,65148
1,729,65145
1,730,65167
1,731,65169
1,732,65133
1,733,65162
1,734,65125
1,735,65151
1,736,65145
1,737,65166
1,738,65158
1,739,65177
1,740,65142
1,741,65143
1,742,65149
1,743,65139
1,744,65121
1,745,65180
1,746,65190
1,747,65085
1,748,65178
1,749,65103
1,750,65131
1,751,65119
1,752,65089
1,753,65100
1,754,65122
1,755,65100
1,756,65160
1,757,65099
1,758,65147
1,759,65092
1,760,65097
1,761,65116
1,762,65119
1,763,65123
1,764,65110
1,765,65075
1,766,65114
1,767,65079
1,768,65080
1,769,65080
1,770,65113
1,771,65121
1,772,65105
1,773,65118
1,774,65142
1,775,65096
1,776,65098
1,777,65159
1,778,65078
1,779,65081
1,780,65144
1,781,65107
1,782,65077
1,783,65117
1,784,65116
1,785,65156
1,786,65274
1,787,66102
1,788,66547
1,789,66852
1,790,65660
1,791,65199
1,792,65105
1,793,65128
1,794,65149
1,795,65142
1,796,65189
1,797,65171
1,798,65182
1,799,65149
1,800,65182
1,801,65134
1,802,65202
1,803,65215
1,804,65217
1,805,65246
1,806,65226
1,807,65218
1,808,65323
1,809,65329
1,810,65292
1,811,65315
1,812,65350
1,813,65260
1,814,65287
1,815,65320
1,816,65228
1,817,65269
1,818,65237
1,819,65238
1,820,65208
1,821,65221
1,822,65195
1,823,65185
1,824,65200
1,825,65170
1,826,65144
1,827,65174
1,828,65169
1,829,65155
1,830,65151
1,831,65217
1,832,65181
1,833,65123
1,834,65133
1,835,65181
1,836,65178
1,837,65229
1,838,65171
1,839,65170
1,840,65178
1,841,65188
1,842,65193
1,843,65203
1,844,65207
1,845,65182
1,846,65202
1,847,65135
1,848,65199
1,849,65192
1,850,65231
1,851,65205
1,852,65201
1,853,65253
1,854,65213
1,855,65201
1,856,65207
1,857,65187
1,858,65215
1,859,65184
1,860,65263
1,861,65184
1,862,65197
1,863,65281
1,864,65223
1,865,65257
1,866,65262
1,867,65220
1,868,65294
1,869,65304
1,870,65280
1,871,65276
1,872,65282
1,873,65315
1,874,65293
1,875,65322
1,876,65348
1,877,65262
1,878,65266
1,879,65296
1,880,65353
1,881,65333
1,882,65326
1,883,65314
1,884,65281
1,885,65356
1,886,65332
1,887,65350
1,888,65353
1,889,65369
1,890,65360
1,891,65337
1,892,65345
1,893,65394
1,894,65401
1,895,65383
1,896,65382
1,897,65423
1,898,65424
1,899,65441
1,900,65407
1,901,65405
1,902,65416
1,903,65415
1,904,65450
1,905,65445
1,906,65464
1,907,65488
1,908,65529
1,909,65520
1,910,65565
1,911,65513
1,912,65542
1,913,65607
1,914,65635
1,915,65579
1,916,65690
1,917,65719
1,918,65743
1,919,65798
1,920,65798
1,921,65918
1,922,65970
1,923,66102
1,924,66145
1,925,66200
1,926,66250
1,927,66264
1,928,66229
1,929,66307
1,930,66294
1,931,66267
1,932,66233
1,933,66169
1,934,66098
1,935,66067
1,936,66035
1,937,66003
1,938,65926
1,939,65890
1,940,65880
1,941,65911
1,942,65866
1,943,65850
1,944,65857
1,945,65792
1,946,65815
1,947,65794
1,948,65807
1,949,65768
1,950,65789
1,951,65725
1,952,65704
1,953,65679
1,954,65638
1,955,65662
1,956,65652
1,957,65622
1,958,65601
1,959,65568
1,960,65526
1,961,65497
1,962,65485
1,963,65464
1,964,65483
1,965,65415
1,966,65463
1,967,65446
1,968,65459
1,969,65406
1,970,65416
1,971,65441
1,972,65479
1,973,65434
1,974,65430
1,975,65421
1,976,65373
1,977,65434
1,978,65434
1,979,65419
1,980,65409
1,981,65338
1,982,65401
1,983,65359
1,984,65376
1,985,65340
1,986,65359
1,987,65368
1,988,65395
1,989,65356
1,990,65388
1,991,65344
1,992,65392
1,993,65366
1,994,65364
1,995,65360
1,996,65414
1,997,65339
1,998,65388
1,999,65348
1,1000,65311
1,1001,65379
1,1002,65380
1,1003,65346
1,1004,65337
1,1005,65347
1,1006,65386
1,1007,65342
1,1008,65341
1,1009,65335
1,1010,65303
1,1011,65396
1,1012,65359
1,1013,65409
1,1014,65336
1,1015,65385
1,1016,65419
1,1017,65408
1,1018,65388
1,1019,65392
1,1020,65317
1,1021,65393
1,1022,65350
1,1023,65333
1,1024,65359
1,1025,65330
1,1026,65334
1,1027,65333
1,1028,65335
1,1029,65350
1,1030,65308
1,1031,65335
1,1032,65305
1,1033,65332
1,1034,65319
1,1035,65343
1,1036,65379
1,1037,65354
1,1038,65334
1,1039,65288
1,1040,65364
1,1041,65340
1,1042,65349
1,1043,65350
1,1044,65307
1,1045,65285
1,1046,65320
1,1047,65303
1,1048,65330
1,1049,65344
1,1050,65322
1,1051,65327
1,1052,65340
1,1053,65291
1,1054,65319
1,1055,65322
1,1056,65295
1,1057,65325
1,1058,65348
1,1059,65373
1,1060,65293
1,1061,65298
1,1062,65375
1,1063,65373
1,1064,65356
1,1065,65387
1,1066,65342
1,1067,65364
1,1068,65352
1,1069,65347
1,1070,65344
1,1071,65324
1,1072,65340
1,1073,65306
1,1074,65316
1,1075,65328
1,1076,65313
1,1077,65323
1,1078,65318
1,1079,65346
1,1080,65322
1,1081,65325
1,1082,65340
1,1083,65340
1,1084,65352
1,1085,65331
1,1086,65310
1,1087,65359
1,1088,65272
1,1089,65273
1,1090,65294
1,1091,65328
1,1092,65316
1,1093,65313
1,1094,65334
1,1095,65350
1,1096,65321
1,1097,65333
1,1098,65307
1,1099,65299
1,1100,65323
1,1101,65350
1,1102,65276
1,1103,65353
1,1104,65317
1,1105,65365
1,1106,65351
1,1107,65354
1,1108,65330
1,1109,65332
1,1110,65363
1,1111,65368
1,1112,65339
1,1113,65369
1,1114,65375
1,1115,65320
1,1116,65333
1,1117,65345
1,1118,65301
1,1119,65308
1,1120,65377
1,1121,65429
1,1122,65344
1,1123,65400
1,1124,65382
1,1125,65402
1,1126,65377
1,1127,65407
1,1128,65381
1,1129,65432
1,1130,65357
1,1131,65382
1,1132,65418
1,1133,65403
1,1134,65351
1,1135,65408
1,1136,65325
1,1137,65380
1,1138,65368
1,1139,65398
1,1140,65353
1,1141,65292
1,1142,65372
1,1143,65362
1,1144,65360
1,1145,65367
1,1146,65451
1,1147,65351
1,1148,65324
1,1149,65339
1,1150,65296
1,1151,65335
1,1152,65352
1,1153,65370
1,1154,65374
1,1155,65362
1,1156,65399
1,1157,65293
1,1158,65383
1,1159,65365
1,1160,65315
1,1161,65361
1,1162,65348
1,1163,65358
1,1164,65392
1,1165,65387
1,1166,65329
1,1167,65292
1,1168,65323
1,1169,65371
1,1170,65349
1,1171,65319
1,1172,65353
1,1173,65359
1,1174,65335
1,1175,65303
1,1176,65343
1,1177,65309
1,1178,65333
1,1179,65299
1,1180,65310
1,1181,65347
1,1182,65355
1,1183,65326
1,1184,65330
1,1185,65305
1,1186,65256
1,1187,65329
1,1188,65364
1,1189,65318
1,1190,65296
1,1191,65336
1,1192,65328
1,1193,65270
1,1194,65361
1,1195,65323
1,1196,65288
1,1197,65285
1,1198,65352
1,1199,65302
1,1200,65328
1,1201,65317
1,1202,65283
1,1203,65270
1,1204,65339
1,1205,65323
1,1206,65277
1,1207,65304
1,1208,65392
1,1209,65290
1,1210,65315
1,1211,65359
1,1212,65380
1,1213,65337
1,1214,65359
1,1215,65328
1,1216,65298
1,1217,65308
1,1218,65317
1,1219,65351
1,1220,65350
1,1221,65294
1,1222,65320
1,1223,65397
1,1224,65319
1,1225,65402
1,1226,65356
1,1227,65413
1,1228,65366
1,1229,65379
1,1230,65349
1,1231,65346
1,1232,65393
1,1233,65345
1,1234,65349
1,1235,65319
1,1236,65364
1,1237,65305
1,1238,65349
1,1239,65353
1,1240,65359
1,1241,65361
1,1242,65345
1,1243,65353
1,1244,65334
1,1245,65347
1,1246,65351
1,1247,65396
1,1248,65308
1,1249,65408
1,1250,65320
1,1251,65401
1,1252,65377
1,1253,65390
1,1254,65274
1,1255,65383
1,1256,65346
1,1257,65366
1,1258,65382
1,1259,65387
1,1260,65325
1,1261,65292
1,1262,65403
1,1263,65340
1,1264,65346
1,1265,65374
1,1266,65366
1,1267,65377
1,1268,65387
1,1269,65354
1,1270,65332
1,1271,65372
1,1272,65291
1,1273,65327
1,1274,65320
1,1275,65307
1,1276,65331
1,1277,65312
1,1278,65299
1,1279,65278
1,1280,65344
1,1281,65337
1,1282,65320
1,1283,65308
1,1284,65289
1,1285,65276
1,1286,65316
1,1287,65258
1,1288,65251
1,1289,65281
1,1290,65258
1,1291,65278
1,1292,65250
1,1293,65273
1,1294,65294
1,1295,65253
1,1296,65246
1,1297,65245
1,1298,65214
1,1299,65217
1,1300,65204
1,1301,65206
1,1302,65211
1,1303,65263
1,1304,65261
1,1305,65307
1,1306,65221
1,1307,65188
1,1308,65209
1,1309,65171
1,1310,65231
1,1311,65210
1,1312,65202
1,1313,65243
1,1314,65189
1,1315,65204
1,1316,65207
1,1317,65140
1,1318,65158
1,1319,65205
1,1320,65147
1,1321,65164
1,1322,65166
1,1323,65208
1,1324,65128
1,1325,65156
1,1326,65166
1,1327,65121
1,1328,65132
1,1329,65145
1,1330,65114
1,1331,65092
1,1332,65112
1,1333,65043
1,1334,65084
1,1335,65051
1,1336,65009
1,1337,65025
1,1338,64946
1,1339,64705
1,1340,73282
