1,1,64394
1,2,64361
1,3,64371
1,4,64356
1,5,64355
1,6,64383
1,7,64387
1,8,64397
1,9,64423
1,10,64402
1,11,64390
1,12,64436
1,13,64419
1,14,64386
1,15,64453
1,16,64450
1,17,64396
1,18,64426
1,19,64433
1,20,64408
1,21,64344
1,22,64376
1,23,64426
1,24,64418
1,25,64421
1,26,64414
1,27,64435
1,28,64399
1,29,64424
1,30,64405
1,31,64451
1,32,64377
1,33,64435
1,34,64412
1,35,64400
1,36,64423
1,37,64412
1,38,64427
1,39,64476
1,40,64407
1,41,64467
1,42,64435
1,43,64464
1,44,64534
1,45,64448
1,46,64490
1,47,64461
1,48,64457
1,49,64500
1,50,64499
1,51,64437
1,52,64497
1,53,64506
1,54,64547
1,55,64492
1,56,64521
1,57,64550
1,58,64544
1,59,64569
1,60,64582
1,61,64533
1,62,64599
1,63,64614
1,64,64616
1,65,64649
1,66,64609
1,67,64716
1,68,64657
1,69,64680
1,70,64716
1,71,64703
1,72,64722
1,73,64712
1,74,64758
1,75,64734
1,76,64725
1,77,64717
1,78,64751
1,79,64737
1,80,64721
1,81,64737
1,82,64696
1,83,64687
1,84,64648
1,85,64684
1,86,64671
1,87,64660
1,88,64639
1,89,64641
1,90,64657
1,91,64617
1,92,64651
1,93,64612
1,94,64575
1,95,64588
1,96,64643
1,97,64580
1,98,64550
1,99,64601
1,100,64524
1,101,64533
1,102,64601
1,103,64562
1,104,64591
1,105,64557
1,106,64593
1,107,64596
1,108,64582
1,109,64694
1,110,64737
1,111,64890
1,112,65083
1,113,65448
1,114,66426
1,115,67528
1,116,68208
1,117,68888
1,118,69704
1,119,70102
1,120,69536
1,121,68562
1,122,68464
1,123,67846
1,124,66680
1,125,66065
1,126,65829
1,127,65514
1,128,65144
1,129,65039
1,130,65032
1,131,64953
1,132,64821
1,133,64847
1,134,64850
1,135,64793
1,136,64747
1,137,64697
1,138,64674
1,139,64663
1,140,64602
1,141,64600
1,142,64574
1,143,64578
1,144,64558
1,145,64571
1,146,64503
1,147,64552
1,148,64469
1,149,64492
1,150,64489
1,151,64564
1,152,64464
1,153,64524
1,154,64522
1,155,64469
1,156,64529
1,157,64477
1,158,64485
1,159,64520
1,160,64462
1,161,64485
1,162,64526
1,163,64505
1,164,64478
1,165,64464
1,166,64497
1,167,64470
1,168,64446
1,169,64478
1,170,64496
1,171,64470
1,172,64513
1,173,64533
1,174,64524
1,175,64479
1,176,64536
1,177,64559
1,178,64547
1,179,64577
1,180,64545
1,181,64544
1,182,64606
1,183,64640
1,184,64627
1,185,64739
1,186,64799
1,187,64924
1,188,65043
1,189,65220
1,190,65448
1,191,65774
1,192,66159
1,193,67014
1,194,68089
1,195,69537
1,196,71527
1,197,74382
1,198,76796
1,199,78894
1,200,79529
1,201,80768
1,202,80056
1,203,78042
1,204,76391
1,205,74731
1,206,72906
1,207,71073
1,208,69695
1,209,68591
1,210,67782
1,211,67130
1,212,66672
1,213,66355
1,214,66220
1,215,65982
1,216,65900
1,217,65755
1,218,65656
1,219,65585
1,220,65481
1,221,65399
1,222,65355
1,223,65307
1,224,65273
1,225,65195
1,226,65120
1,227,65063
1,228,65001
1,229,65021
1,230,64976
1,231,64947
1,232,64940
1,233,64874
1,234,64923
1,235,64890
1,236,64831
1,237,64902
1,238,64851
1,239,64828
1,240,64877
1,241,64893
1,242,64879
1,243,64840
1,244,64853
1,245,64846
1,246,64854
1,247,64866
1,248,64840
1,249,64852
1,250,64863
1,251,64840
1,252,64800
1,253,64882
1,254,64836
1,255,64868
1,256,64801
1,257,64824
1,258,64831
1,259,64873
1,260,64803
1,261,64772
1,262,64867
1,263,64817
1,264,64855
1,265,64826
1,266,64829
1,267,64813
1,268,64842
1,269,64829
1,270,64822
1,271,64829
1,272,64885
1,273,64875
1,274,64796
1,275,64843
1,276,64900
1,277,64814
1,278,64833
1,279,64916
1,280,64863
1,281,64889
1,282,64888
1,283,64903
1,284,64939
1,285,64911
1,286,64887
1,287,64932
1,288,64909
1,289,64894
1,290,64877
1,291,64885
1,292,64937
1,293,64913
1,294,64943
1,295,64899
1,296,64949
1,297,64961
1,298,64996
1,299,64918
1,300,64944
1,301,64953
1,302,64895
1,303,64898
1,304,64897
1,305,64925
1,306,64916
1,307,64898
1,308,64878
1,309,64869
1,310,64882
1,311,64865
1,312,64896
1,313,64876
1,314,64859
1,315,64843
1,316,64813
1,317,64802
1,318,64819
1,319,64858
1,320,64861
1,321,64861
1,322,64847
1,323,64843
1,324,64901
1,325,64915
1,326,64934
1,327,64934
1,328,64909
1,329,64952
1,330,64889
1,331,64915
1,332,64918
1,333,64953
1,334,64913
1,335,64921
1,336,64886
1,337,64861
1,338,64851
1,339,64936
1,340,64892
1,341,64927
1,342,64856
1,343,64906
1,344,64869
1,345,64859
1,346,64859
1,347,64851
1,348,64878
1,349,64906
1,350,64915
1,351,64839
1,352,64963
1,353,64912
1,354,65036
1,355,65014
1,356,64998
1,357,65020
1,358,65039
1,359,65008
1,360,65009
1,361,65015
1,362,65016
1,363,64939
1,364,64928
1,365,64983
1,366,64899
1,367,64912
1,368,64888
1,369,64916
1,370,64852
1,371,64917
1,372,64910
1,373,64893
1,374,64872
1,375,64841
1,376,64866
1,377,64838
1,378,64854
1,379,64864
1,380,64881
1,381,64876
1,382,64866
1,383,64881
1,384,64868
1,385,64911
1,386,64902
1,387,64897
1,388,64904
1,389,64942
1,390,64846
1,391,64874
1,392,64898
1,393,64852
1,394,64889
1,395,64869
1,396,64903
1,397,64915
1,398,64886
1,399,64913
1,400,64874
1,401,64863
1,402,64866
1,403,64856
1,404,64943
1,405,64885
1,406,64906
1,407,64971
1,408,64935
1,409,64908
1,410,64928
1,411,64926
1,412,64955
1,413,64937
1,414,64949
1,415,64902
1,416,64934
1,417,64991
1,418,64923
1,419,64933
1,420,64928
1,421,64957
1,422,64914
1,423,64936
1,424,64902
1,425,64886
1,426,64861
1,427,64920
1,428,64951
1,429,64931
1,430,64949
1,431,64948
1,432,64915
1,433,64935
1,434,64913
1,435,64921
1,436,64859
1,437,64892
1,438,64926
1,439,64959
1,440,64984
1,441,64995
1,442,64924
1,443,64938
1,444,64937
1,445,64948
1,446,64924
1,447,64981
1,448,64959
1,449,64917
1,450,64895
1,451,64920
1,452,64910
1,453,64957
1,454,64951
1,455,64889
1,456,64956
1,457,64978
1,458,64894
1,459,64940
1,460,64947
1,461,64959
1,462,64967
1,463,64947
1,464,64983
1,465,64971
1,466,64971
1,467,64980
1,468,64965
1,469,64944
1,470,64969
1,471,64986
1,472,64978
1,473,64993
1,474,65022
1,475,64988
1,476,64983
1,477,64999
1,478,64984
1,479,64970
1,480,64997
1,481,64986
1,482,64964
1,483,64978
1,484,64955
1,485,64991
1,486,64982
1,487,65006
1,488,65009
1,489,64980
1,490,64985
1,491,64983
1,492,65015
1,493,64984
1,494,64975
1,495,65006
1,496,65017
1,497,64959
1,498,65022
1,499,64942
1,500,64989
1,501,64992
1,502,65033
1,503,65028
1,504,64985
1,505,64958
1,506,65056
1,507,65024
1,508,65079
1,509,65002
1,510,64993
1,511,65069
1,512,64995
1,513,65056
1,514,65096
1,515,65035
1,516,65015
1,517,65057
1,518,65056
1,519,65048
1,520,65090
1,521,65063
1,522,65101
1,523,65146
1,524,65119
1,525,65154
1,526,65244
1,527,65232
1,528,65352
1,529,65475
1,530,65653
1,531,65875
1,532,66248
1,533,66666
1,534,67226
1,535,67646
1,536,67829
1,537,67837
1,538,67406
1,539,67002
1,540,66438
1,541,65952
1,542,65584
1,543,65423
1,544,65214
1,545,65238
1,546,65152
1,547,65134
1,548,65161
1,549,65089
1,550,65120
1,551,65076
1,552,65079
1,553,65107
1,554,65053
1,555,65002
1,556,65027
1,557,64997
1,558,65030
1,559,65051
1,560,65045
1,561,65060
1,562,65060
1,563,65006
1,564,65063
1,565,65052
1,566,65048
1,567,65063
1,568,65040
1,569,65052
1,570,65029
1,571,65065
1,572,65031
1,573,65000
1,574,65046
1,575,65057
1,576,65059
1,577,65026
1,578,65007
1,579,65079
1,580,65059
1,581,65093
1,582,65063
1,583,65047
1,584,65020
1,585,65028
1,586,65040
1,587,65084
1,588,65072
1,589,65059
1,590,65081
1,591,65146
1,592,65181
1,593,65139
1,594,65171
1,595,65172
1,596,65143
1,597,65180
1,598,65187
1,599,65172
1,600,65217
1,601,65201
1,602,65262
1,603,65275
1,604,65292
1,605,65297
1,606,65273
1,607,65307
1,608,65364
1,609,65433
1,610,65431
1,611,65460
1,612,65469
1,613,65547
1,614,65516
1,615,65489
1,616,65519
1,617,65366
1,618,65363
1,619,65311
1,620,65247
1,621,65270
1,622,65194
1,623,65205
1,624,65227
1,625,65173
1,626,65196
1,627,65177
1,628,65130
1,629,65211
1,630,65211
1,631,65139
1,632,65170
1,633,65184
1,634,65181
1,635,65202
1,636,65140
1,637,65188
1,638,65147
1,639,65152
1,640,65169
1,641,65168
1,642,65197
1,643,65223
1,644,65238
1,645,65265
1,646,65220
1,647,65238
1,648,65294
1,649,65332
1,650,65335
1,651,65387
1,652,65456
1,653,65482
1,654,65625
1,655,65682
1,656,65780
1,657,65894
1,658,65984
1,659,66085
1,660,66088
1,661,66215
1,662,66230
1,663,66217
1,664,66284
1,665,66244
1,666,66129
1,667,65965
1,668,65854
1,669,65732
1,670,65595
1,671,65498
1,672,65385
1,673,65360
1,674,65337
1,675,65258
1,676,65202
1,677,65241
1,678,65195
1,679,65235
1,680,65201
1,681,65353
1,682,65218
1,683,65195
1,684,65244
1,685,65177
1,686,65208
1,687,65209
1,688,65179
1,689,65201
1,690,65223
1,691,65273
1,692,65251
1,693,65182
1,694,65199
1,695,65217
1,696,65306
1,697,65281
1,698,65256
1,699,65302
1,700,65328
1,701,65317
1,702,65411
1,703,65368
1,704,65447
1,705,65463
1,706,65447
1,707,65489
1,708,65495
1,709,65452
1,710,65462
1,711,65531
1,712,65538
1,713,65546
1,714,65528
1,715,65557
1,716,65562
1,717,65571
1,718,65603
1,719,65639
1,720,65628
1,721,65563
1,722,65594
1,723,65570
1,724,65486
1,725,65471
1,726,65417
1,727,65357
1,728,65386
1,729,65405
1,730,65324
1,731,65392
1,732,65387
1,733,65379
1,734,65308
1,735,65353
1,736,65337
1,737,65361
1,738,65358
1,739,65410
1,740,65418
1,741,65500
1,742,65404
1,743,65379
1,744,65369
1,745,65376
1,746,65336
1,747,65342
1,748,65261
1,749,65330
1,750,65275
1,751,65256
1,752,65183
1,753,65209
1,754,65244
1,755,65256
1,756,65216
1,757,65181
1,758,65183
1,759,65181
1,760,65213
1,761,65218
1,762,65200
1,763,65174
1,764,65174
1,765,65166
1,766,65159
1,767,65181
1,768,65158
1,769,65146
1,770,65147
1,771,65226
1,772,65168
1,773,65187
1,774,65113
1,775,65174
1,776,65115
1,777,65145
1,778,65147
1,779,65144
1,780,65167
1,781,65144
1,782,65194
1,783,65181
1,784,65163
1,785,65143
1,786,65179
1,787,65160
1,788,65168
1,789,65125
1,790,65167
1,791,65184
1,792,65120
1,793,65161
1,794,65143
1,795,65157
1,796,65204
1,797,65120
1,798,65164
1,799,65160
1,800,65151
1,801,65225
1,802,65222
1,803,65198
1,804,65205
1,805,65198
1,806,65189
1,807,65193
1,808,65170
1,809,65219
1,810,65224
1,811,65227
1,812,65249
1,813,65189
1,814,65202
1,815,65194
1,816,65213
1,817,65229
1,818,65209
1,819,65236
1,820,65251
1,821,65212
1,822,65234
1,823,65260
1,824,65218
1,825,65282
1,826,65229
1,827,65325
1,828,65274
1,829,65239
1,830,65263
1,831,65307
1,832,65298
1,833,65321
1,834,65304
1,835,65327
1,836,65351
1,837,65347
1,838,65362
1,839,65382
1,840,65368
1,841,65309
1,842,65324
1,843,65332
1,844,65345
1,845,65305
1,846,65329
1,847,65342
1,848,65336
1,849,65360
1,850,65400
1,851,65452
1,852,65392
1,853,65490
1,854,65437
1,855,65386
1,856,65414
1,857,65383
1,858,65416
1,859,65374
1,860,65407
1,861,65391
1,862,65381
1,863,65394
1,864,65380
1,865,65390
1,866,65414
1,867,65396
1,868,65361
1,869,65391
1,870,65450
1,871,65360
1,872,65433
1,873,65357
1,874,65399
1,875,65368
1,876,65354
1,877,65398
1,878,65385
1,879,65391
1,880,65410
1,881,65376
1,882,65444
1,883,65420
1,884,65408
1,885,65423
1,886,65415
1,887,65476
1,888,65417
1,889,65472
1,890,65497
1,891,65466
1,892,65499
1,893,65530
1,894,65524
1,895,65586
1,896,65517
1,897,65591
1,898,65529
1,899,65490
1,900,65568
1,901,65539
1,902,65548
1,903,65547
1,904,65528
1,905,65565
1,906,65581
1,907,65572
1,908,65641
1,909,65614
1,910,65555
1,911,65622
1,912,65669
1,913,65642
1,914,65687
1,915,65681
1,916,65698
1,917,65788
1,918,65824
1,919,65838
1,920,65915
1,921,66064
1,922,66097
1,923,66198
1,924,66293
1,925,66386
1,926,66501
1,927,66474
1,928,66509
1,929,66553
1,930,66419
1,931,66433
1,932,66349
1,933,66294
1,934,66272
1,935,66174
1,936,66158
1,937,66137
1,938,66095
1,939,65998
1,940,66019
1,941,65927
1,942,65949
1,943,65915
1,944,65878
1,945,65811
1,946,65802
1,947,65794
1,948,65709
1,949,65678
1,950,65696
1,951,65651
1,952,65656
1,953,65598
1,954,65623
1,955,65585
1,956,65528
1,957,65544
1,958,65567
1,959,65538
1,960,65564
1,961,65544
1,962,65514
1,963,65523
1,964,65497
1,965,65479
1,966,65445
1,967,65444
1,968,65453
1,969,65436
1,970,65433
1,971,65491
1,972,65452
1,973,65492
1,974,65395
1,975,65425
1,976,65489
1,977,65464
1,978,65436
1,979,65458
1,980,65421
1,981,65469
1,982,65445
1,983,65429
1,984,65401
1,985,65403
1,986,65429
1,987,65442
1,988,65371
1,989,65424
1,990,65448
1,991,65425
1,992,65466
1,993,65375
1,994,65381
1,995,65441
1,996,65407
1,997,65427
1,998,65392
1,999,65483
1,1000,65413
1,1001,65449
1,1002,65380
1,1003,65404
1,1004,65397
1,1005,65406
1,1006,65406
1,1007,65383
1,1008,65411
1,1009,65377
1,1010,65380
1,1011,65390
1,1012,65383
1,1013,65426
1,1014,65429
1,1015,65434
1,1016,65407
1,1017,65503
1,1018,65495
1,1019,65443
1,1020,65460
1,1021,65438
1,1022,65428
1,1023,65368
1,1024,65380
1,1025,65401
1,1026,65388
1,1027,65442
1,1028,65390
1,1029,65399
1,1030,65378
1,1031,65409
1,1032,65383
1,1033,65439
1,1034,65402
1,1035,65366
1,1036,65442
1,1037,65388
1,1038,65409
1,1039,65360
1,1040,65348
1,1041,65360
1,1042,65383
1,1043,65350
1,1044,65398
1,1045,65413
1,1046,65360
1,1047,65383
1,1048,65352
1,1049,65397
1,1050,65380
1,1051,65378
1,1052,65382
1,1053,65374
1,1054,65393
1,1055,65388
1,1056,65381
1,1057,65389
1,1058,65378
1,1059,65424
1,1060,65358
1,1061,65405
1,1062,65394
1,1063,65321
1,1064,65457
1,1065,65444
1,1066,65450
1,1067,65452
1,1068,65490
1,1069,65422
1,1070,65419
1,1071,65394
1,1072,65407
1,1073,65442
1,1074,65392
1,1075,65382
1,1076,65365
1,1077,65352
1,1078,65356
1,1079,65387
1,1080,65431
1,1081,65433
1,1082,65422
1,1083,65455
1,1084,65403
1,1085,65395
1,1086,65384
1,1087,65351
1,1088,65444
1,1089,65435
1,1090,65354
1,1091,65417
1,1092,65417
1,1093,65413
1,1094,65413
1,1095,65398
1,1096,65425
1,1097,65418
1,1098,65400
1,1099,65417
1,1100,65385
1,1101,65449
1,1102,65407
1,1103,65429
1,1104,65439
1,1105,65508
1,1106,65412
1,1107,65453
1,1108,65403
1,1109,65471
1,1110,65405
1,1111,65402
1,1112,65406
1,1113,65419
1,1114,65415
1,1115,65466
1,1116,65371
1,1117,65377
1,1118,65471
1,1119,65402
1,1120,65440
1,1121,65464
1,1122,65451
1,1123,65453
1,1124,65499
1,1125,65497
1,1126,65471
1,1127,65446
1,1128,65447
1,1129,65421
1,1130,65477
1,1131,65374
1,1132,65419
1,1133,65467
1,1134,65452
1,1135,65480
1,1136,65374
1,1137,65416
1,1138,65480
1,1139,65468
1,1140,65483
1,1141,65392
1,1142,65477
1,1143,65377
1,1144,65433
1,1145,65402
1,1146,65517
1,1147,65427
1,1148,65444
1,1149,65465
1,1150,65409
1,1151,65439
1,1152,65414
1,1153,65447
1,1154,65402
1,1155,65410
1,1156,65417
1,1157,65384
1,1158,65385
1,1159,65427
1,1160,65411
1,1161,65402
1,1162,65408
1,1163,65414
1,1164,65438
1,1165,65439
1,1166,65376
1,1167,65398
1,1168,65422
1,1169,65371
1,1170,65447
1,1171,65399
1,1172,65410
1,1173,65429
1,1174,65401
1,1175,65356
1,1176,65412
1,1177,65402
1,1178,65417
1,1179,65373
1,1180,65448
1,1181,65362
1,1182,65367
1,1183,65443
1,1184,65382
1,1185,65442
1,1186,65402
1,1187,65405
1,1188,65445
1,1189,65394
1,1190,65444
1,1191,65397
1,1192,65375
1,1193,65390
1,1194,65426
1,1195,65406
1,1196,65389
1,1197,65364
1,1198,65413
1,1199,65389
1,1200,65396
1,1201,65411
1,1202,65380
1,1203,65418
1,1204,65369
1,1205,65394
1,1206,65404
1,1207,65396
1,1208,65433
1,1209,65411
1,1210,65395
1,1211,65442
1,1212,65411
1,1213,65420
1,1214,65372
1,1215,65436
1,1216,65439
1,1217,65436
1,1218,65413
1,1219,65457
1,1220,65399
1,1221,65434
1,1222,65451
1,1223,65469
1,1224,65412
1,1225,65410
1,1226,65446
1,1227,65446
1,1228,65328
1,1229,65464
1,1230,65460
1,1231,65420
1,1232,65383
1,1233,65430
1,1234,65437
1,1235,65443
1,1236,65431
1,1237,65437
1,1238,65412
1,1239,65417
1,1240,65436
1,1241,65410
1,1242,65434
1,1243,65447
1,1244,65462
1,1245,65506
1,1246,65419
1,1247,65433
1,1248,65445
1,1249,65438
1,1250,65451
1,1251,65472
1,1252,65484
1,1253,65453
1,1254,65401
1,1255,65392
1,1256,65442
1,1257,65480
1,1258,65459
1,1259,65457
1,1260,65407
1,1261,65418
1,1262,65447
1,1263,65420
1,1264,65431
1,1265,65465
1,1266,65445
1,1267,65392
1,1268,65409
1,1269,65414
1,1270,65389
1,1271,65431
1,1272,65368
1,1273,65350
1,1274,65433
1,1275,65399
1,1276,65370
1,1277,65407
1,1278,65408
1,1279,65458
1,1280,65432
1,1281,65394
1,1282,65426
1,1283,65402
1,1284,65395
1,1285,65361
1,1286,65429
1,1287,65398
1,1288,65386
1,1289,65358
1,1290,65426
1,1291,65328
1,1292,65369
1,1293,65370
1,1294,65399
1,1295,65370
1,1296,65357
1,1297,65315
1,1298,65308
1,1299,65305
1,1300,65348
1,1301,65343
1,1302,65328
1,1303,65341
1,1304,65327
1,1305,65352
1,1306,65300
1,1307,65312
1,1308,65305
1,1309,65261
1,1310,65301
1,1311,65246
1,1312,65268
1,1313,65317
1,1314,65302
1,1315,65242
1,1316,65202
1,1317,65265
1,1318,65245
1,1319,65236
1,1320,65243
1,1321,65246
1,1322,65233
1,1323,65227
1,1324,65208
1,1325,65170
1,1326,65232
1,1327,65169
1,1328,65208
1,1329,65206
1,1330,65196
1,1331,65164
1,1332,65166
1,1333,65142
1,1334,65166
1,1335,65098
1,1336,65053
1,1337,65116
1,1338,64978
1,1339,64818
1,1340,73487
