1,1,193561
1,2,193677
1,3,193693
1,4,193683
1,5,193650
1,6,193614
1,7,193729
1,8,193850
1,9,193747
1,10,193807
1,11,193766
1,12,193829
1,13,193763
1,14,193787
1,15,193817
1,16,193810
1,17,193844
1,18,193944
1,19,194070
1,20,193919
1,21,194072
1,22,194219
1,23,194343
1,24,194477
1,25,194602
1,26,194872
1,27,195028
1,28,195079
1,29,195208
1,30,195164
1,31,195170
1,32,195098
1,33,194992
1,34,194866
1,35,194814
1,36,194702
1,37,194672
1,38,194650
1,39,194661
1,40,194682
1,41,194807
1,42,194772
1,43,194915
1,44,194836
1,45,194935
1,46,194855
1,47,194954
1,48,194826
1,49,194846
1,50,194885
1,51,194727
1,52,194686
1,53,194794
1,54,194800
1,55,194691
1,56,194782
1,57,194787
1,58,194847
1,59,194820
1,60,194866
1,61,195030
1,62,195212
1,63,195391
1,64,195442
1,65,195680
1,66,195844
1,67,196070
1,68,196028
1,69,196110
1,70,196221
1,71,196275
1,72,196265
1,73,196239
1,74,196304
1,75,196239
1,76,196094
1,77,196002
1,78,195928
1,79,195884
1,80,195842
1,81,195742
1,82,195673
1,83,195565
1,84,195576
1,85,195445
1,86,195337
1,87,195432
1,88,195405
1,89,195367
1,90,195288
1,91,195291
1,92,195272
1,93,195224
1,94,195288
1,95,195248
1,96,195316
1,97,195363
1,98,195371
1,99,195494
1,100,195575
1,101,195793
1,102,195919
1,103,196151
1,104,196644
1,105,196962
1,106,197558
1,107,198361
1,108,199255
1,109,200408
1,110,202195
1,111,206020
1,112,211949
1,113,219963
1,114,241274
1,115,284371
1,116,320385
1,117,339173
1,118,371966
1,119,406347
1,120,388607
1,121,361883
1,122,362015
1,123,344789
1,124,293662
1,125,268270
1,126,261443
1,127,246019
1,128,227872
1,129,224196
1,130,223469
1,131,219540
1,132,217134
1,133,217722
1,134,216943
1,135,215187
1,136,214882
1,137,213578
1,138,211315
1,139,210530
1,140,209716
1,141,207896
1,142,206769
1,143,206617
1,144,205336
1,145,203889
1,146,203828
1,147,203580
1,148,202236
1,149,201785
1,150,202017
1,151,201122
1,152,200448
1,153,200378
1,154,200126
1,155,199302
1,156,199072
1,157,199008
1,158,198622
1,159,198235
1,160,198003
1,161,197958
1,162,197575
1,163,197378
1,164,197179
1,165,197043
1,166,196973
1,167,196577
1,168,196411
1,169,196342
1,170,196245
1,171,196095
1,172,195906
1,173,195983
1,174,195908
1,175,195774
1,176,195765
1,177,195696
1,178,195632
1,179,195656
1,180,195643
1,181,195736
1,182,195691
1,183,195706
1,184,195874
1,185,195811
1,186,195989
1,187,196327
1,188,196661
1,189,197140
1,190,197936
1,191,199091
1,192,200492
1,193,202990
1,194,206328
1,195,210684
1,196,216378
1,197,224182
1,198,231216
1,199,233578
1,200,235690
1,201,237472
1,202,234695
1,203,230731
1,204,227792
1,205,222620
1,206,219049
1,207,215223
1,208,212281
1,209,209720
1,210,208088
1,211,206486
1,212,205227
1,213,204407
1,214,203645
1,215,203031
1,216,202270
1,217,201565
1,218,200964
1,219,200372
1,220,199922
1,221,199150
1,222,198866
1,223,198487
1,224,198132
1,225,197775
1,226,197500
1,227,197349
1,228,197120
1,229,196971
1,230,196817
1,231,196774
1,232,196639
1,233,196631
1,234,196538
1,235,196449
1,236,196469
1,237,196512
1,238,196450
1,239,196387
1,240,196346
1,241,196552
1,242,196390
1,243,196477
1,244,196377
1,245,196419
1,246,196451
1,247,196501
1,248,196406
1,249,196388
1,250,196542
1,251,196602
1,252,196532
1,253,196518
1,254,196613
1,255,196712
1,256,196644
1,257,196676
1,258,196789
1,259,196700
1,260,196834
1,261,196772
1,262,196820
1,263,196819
1,264,196854
1,265,196969
1,266,196912
1,267,197002
1,268,197019
1,269,196993
1,270,197056
1,271,197113
1,272,197207
1,273,197194
1,274,197219
1,275,197305
1,276,197343
1,277,197450
1,278,197493
1,279,197537
1,280,197765
1,281,197851
1,282,197960
1,283,198164
1,284,198219
1,285,198331
1,286,198326
1,287,198503
1,288,198318
1,289,198371
1,290,198375
1,291,198315
1,292,198224
1,293,198150
1,294,198094
1,295,198047
1,296,197953
1,297,197886
1,298,197805
1,299,197588
1,300,197556
1,301,197516
1,302,197407
1,303,197420
1,304,197355
1,305,197396
1,306,197153
1,307,197076
1,308,197045
1,309,196902
1,310,196977
1,311,196841
1,312,196795
1,313,196746
1,314,196701
1,315,196548
1,316,196566
1,317,196540
1,318,196515
1,319,196568
1,320,196524
1,321,196566
1,322,196606
1,323,196507
1,324,196602
1,325,196654
1,326,196691
1,327,196570
1,328,196539
1,329,196602
1,330,196640
1,331,196620
1,332,196639
1,333,196708
1,334,196804
1,335,196781
1,336,196689
1,337,196828
1,338,196746
1,339,196846
1,340,196777
1,341,196954
1,342,196875
1,343,196889
1,344,196839
1,345,196834
1,346,196848
1,347,196823
1,348,197022
1,349,196949
1,350,196906
1,351,196787
1,352,196784
1,353,196875
1,354,196845
1,355,196903
1,356,196878
1,357,196992
1,358,196817
1,359,196916
1,360,196920
1,361,197034
1,362,196886
1,363,196970
1,364,197020
1,365,196959
1,366,196885
1,367,197049
1,368,196949
1,369,197030
1,370,197101
1,371,197200
1,372,197231
1,373,197181
1,374,197232
1,375,197313
1,376,197290
1,377,197287
1,378,197220
1,379,197189
1,380,197192
1,381,197232
1,382,197224
1,383,197178
1,384,197287
1,385,197288
1,386,197358
1,387,197263
1,388,197289
1,389,197269
1,390,197235
1,391,197269
1,392,197191
1,393,197158
1,394,197131
1,395,197074
1,396,197143
1,397,197112
1,398,197081
1,399,197088
1,400,197112
1,401,197101
1,402,197157
1,403,197119
1,404,197086
1,405,197128
1,406,197133
1,407,197247
1,408,197230
1,409,197201
1,410,197174
1,411,197205
1,412,197339
1,413,197246
1,414,197329
1,415,197294
1,416,197379
1,417,197288
1,418,197170
1,419,197256
1,420,197221
1,421,197254
1,422,197185
1,423,197128
1,424,197296
1,425,197255
1,426,197235
1,427,197191
1,428,197173
1,429,197229
1,430,197247
1,431,197313
1,432,197210
1,433,197256
1,434,197308
1,435,197194
1,436,197239
1,437,197251
1,438,197349
1,439,197296
1,440,197320
1,441,197202
1,442,197259
1,443,197181
1,444,197140
1,445,197137
1,446,197224
1,447,197194
1,448,197186
1,449,197121
1,450,197258
1,451,197106
1,452,197137
1,453,196996
1,454,197265
1,455,197175
1,456,197182
1,457,197228
1,458,197204
1,459,197228
1,460,197162
1,461,197135
1,462,197101
1,463,197124
1,464,197146
1,465,197118
1,466,197267
1,467,197185
1,468,197233
1,469,197187
1,470,197238
1,471,197282
1,472,197254
1,473,197294
1,474,197206
1,475,197294
1,476,197315
1,477,197289
1,478,197251
1,479,197360
1,480,197259
1,481,197398
1,482,197354
1,483,197302
1,484,197382
1,485,197347
1,486,197309
1,487,197422
1,488,197423
1,489,197355
1,490,197399
1,491,197319
1,492,197420
1,493,197473
1,494,197485
1,495,197462
1,496,197406
1,497,197406
1,498,197437
1,499,197327
1,500,197389
1,501,197331
1,502,197431
1,503,197263
1,504,197272
1,505,197370
1,506,197390
1,507,197309
1,508,197347
1,509,197317
1,510,197241
1,511,197300
1,512,197294
1,513,197293
1,514,197358
1,515,197392
1,516,197340
1,517,197380
1,518,197289
1,519,197371
1,520,197402
1,521,197369
1,522,197413
1,523,197454
1,524,197453
1,525,197497
1,526,197526
1,527,197482
1,528,197627
1,529,197722
1,530,197726
1,531,197759
1,532,197872
1,533,197787
1,534,197704
1,535,197638
1,536,197674
1,537,197679
1,538,197874
1,539,198062
1,540,198063
1,541,198132
1,542,198117
1,543,198302
1,544,198213
1,545,198413
1,546,198440
1,547,198281
1,548,198358
1,549,198315
1,550,198322
1,551,198309
1,552,198199
1,553,198291
1,554,198018
1,555,198137
1,556,198029
1,557,197985
1,558,198020
1,559,197926
1,560,198003
1,561,197895
1,562,197925
1,563,197859
1,564,197865
1,565,197757
1,566,197707
1,567,197813
1,568,197828
1,569,197588
1,570,197734
1,571,197757
1,572,197701
1,573,197687
1,574,197632
1,575,197647
1,576,197573
1,577,197656
1,578,197617
1,579,197692
1,580,197671
1,581,197647
1,582,197696
1,583,197620
1,584,197652
1,585,197655
1,586,197760
1,587,197824
1,588,197891
1,589,197858
1,590,197810
1,591,197920
1,592,197850
1,593,197775
1,594,197942
1,595,197843
1,596,197946
1,597,197844
1,598,197867
1,599,197901
1,600,197951
1,601,197839
1,602,197930
1,603,197808
1,604,197827
1,605,197736
1,606,197835
1,607,197774
1,608,197788
1,609,197787
1,610,197814
1,611,197828
1,612,197822
1,613,197790
1,614,197877
1,615,197812
1,616,197910
1,617,197895
1,618,197864
1,619,197954
1,620,197893
1,621,198021
1,622,197934
1,623,198007
1,624,197997
1,625,197931
1,626,198018
1,627,198060
1,628,197890
1,629,198098
1,630,198111
1,631,198105
1,632,198217
1,633,198119
1,634,198158
1,635,198391
1,636,198359
1,637,198373
1,638,198461
1,639,198575
1,640,198626
1,641,198788
1,642,198936
1,643,199146
1,644,199259
1,645,199586
1,646,199793
1,647,200094
1,648,200360
1,649,200620
1,650,200955
1,651,201093
1,652,201366
1,653,201545
1,654,201750
1,655,201843
1,656,201761
1,657,201667
1,658,201632
1,659,201300
1,660,200980
1,661,200920
1,662,200446
1,663,200336
1,664,199996
1,665,199732
1,666,199549
1,667,199454
1,668,199202
1,669,199175
1,670,199077
1,671,198917
1,672,199052
1,673,198984
1,674,198864
1,675,198934
1,676,198938
1,677,199152
1,678,198932
1,679,199048
1,680,199001
1,681,199333
1,682,199012
1,683,198922
1,684,198892
1,685,198966
1,686,198919
1,687,198914
1,688,198825
1,689,198843
1,690,198842
1,691,198751
1,692,198681
1,693,198721
1,694,198629
1,695,198567
1,696,198621
1,697,198619
1,698,198598
1,699,198707
1,700,198732
1,701,198677
1,702,198767
1,703,198811
1,704,198924
1,705,198983
1,706,198955
1,707,198924
1,708,198989
1,709,198936
1,710,198796
1,711,198972
1,712,198913
1,713,198945
1,714,198989
1,715,199016
1,716,198888
1,717,199000
1,718,198965
1,719,199067
1,720,198960
1,721,198915
1,722,198977
1,723,198927
1,724,198853
1,725,198880
1,726,198847
1,727,198838
1,728,198761
1,729,198701
1,730,198644
1,731,198559
1,732,198520
1,733,198565
1,734,198519
1,735,198683
1,736,198472
1,737,198454
1,738,198481
1,739,198557
1,740,198471
1,741,198539
1,742,198506
1,743,198491
1,744,198377
1,745,198328
1,746,198336
1,747,198235
1,748,198321
1,749,198236
1,750,198318
1,751,198268
1,752,198161
1,753,198207
1,754,198304
1,755,198248
1,756,198238
1,757,198223
1,758,198167
1,759,198219
1,760,198235
1,761,198151
1,762,198166
1,763,198163
1,764,198242
1,765,198131
1,766,198078
1,767,198120
1,768,198127
1,769,198173
1,770,198128
1,771,198226
1,772,198167
1,773,198209
1,774,198141
1,775,198176
1,776,198171
1,777,198201
1,778,198160
1,779,197974
1,780,198270
1,781,198264
1,782,198174
1,783,198180
1,784,198357
1,785,198427
1,786,198627
1,787,198708
1,788,198305
1,789,198246
1,790,198243
1,791,198354
1,792,198352
1,793,198320
1,794,198332
1,795,198314
1,796,198393
1,797,198478
1,798,198373
1,799,198395
1,800,198357
1,801,198391
1,802,198566
1,803,198340
1,804,198461
1,805,198386
1,806,198436
1,807,198454
1,808,198291
1,809,198354
1,810,198428
1,811,198343
1,812,198342
1,813,198272
1,814,198286
1,815,198341
1,816,198348
1,817,198377
1,818,198405
1,819,198313
1,820,198325
1,821,198242
1,822,198348
1,823,198212
1,824,198185
1,825,198334
1,826,198241
1,827,198287
1,828,198353
1,829,198260
1,830,198367
1,831,198321
1,832,198397
1,833,198273
1,834,198360
1,835,198375
1,836,198533
1,837,198540
1,838,198528
1,839,198550
1,840,198471
1,841,198532
1,842,198631
1,843,198654
1,844,198735
1,845,198719
1,846,198715
1,847,198684
1,848,198711
1,849,198631
1,850,198756
1,851,198757
1,852,198660
1,853,198784
1,854,198761
1,855,198808
1,856,198765
1,857,198783
1,858,198703
1,859,198785
1,860,198729
1,861,198763
1,862,198850
1,863,198884
1,864,198864
1,865,198817
1,866,198785
1,867,198846
1,868,198913
1,869,198913
1,870,199096
1,871,198949
1,872,198963
1,873,198853
1,874,198947
1,875,199009
1,876,198925
1,877,198839
1,878,198866
1,879,198897
1,880,198921
1,881,198856
1,882,198879
1,883,198906
1,884,198927
1,885,198878
1,886,198731
1,887,198880
1,888,198851
1,889,199008
1,890,198895
1,891,198837
1,892,198920
1,893,198762
1,894,198781
1,895,198791
1,896,198783
1,897,198799
1,898,198800
1,899,198755
1,900,198708
1,901,198799
1,902,198869
1,903,198845
1,904,198856
1,905,198802
1,906,198887
1,907,198846
1,908,198869
1,909,198925
1,910,198820
1,911,198937
1,912,198919
1,913,198905
1,914,198869
1,915,199080
1,916,199058
1,917,199104
1,918,199124
1,919,199274
1,920,199331
1,921,199416
1,922,199607
1,923,199845
1,924,200029
1,925,200157
1,926,200247
1,927,200421
1,928,200469
1,929,200472
1,930,200352
1,931,200282
1,932,200504
1,933,200421
1,934,200334
1,935,200370
1,936,200275
1,937,200280
1,938,200214
1,939,200146
1,940,200043
1,941,199964
1,942,199801
1,943,199899
1,944,199727
1,945,199639
1,946,199617
1,947,199593
1,948,199471
1,949,199313
1,950,199347
1,951,199200
1,952,199135
1,953,199119
1,954,199041
1,955,199139
1,956,198951
1,957,198915
1,958,198879
1,959,198953
1,960,198881
1,961,198867
1,962,198841
1,963,198763
1,964,198793
1,965,198699
1,966,198659
1,967,198705
1,968,198698
1,969,198614
1,970,198644
1,971,198650
1,972,198529
1,973,198588
1,974,198593
1,975,198629
1,976,198650
1,977,198628
1,978,198524
1,979,198464
1,980,198571
1,981,198584
1,982,198557
1,983,198451
1,984,198524
1,985,198539
1,986,198513
1,987,198566
1,988,198495
1,989,198600
1,990,198547
1,991,198527
1,992,198550
1,993,198491
1,994,198494
1,995,198467
1,996,198518
1,997,198449
1,998,198415
1,999,198505
1,1000,198461
1,1001,198505
1,1002,198521
1,1003,198476
1,1004,198498
1,1005,198383
1,1006,198490
1,1007,198498
1,1008,198563
1,1009,198500
1,1010,198422
1,1011,198457
1,1012,198594
1,1013,198576
1,1014,198513
1,1015,198471
1,1016,198534
1,1017,198609
1,1018,198694
1,1019,198570
1,1020,198472
1,1021,198552
1,1022,198400
1,1023,198493
1,1024,198492
1,1025,198414
1,1026,198457
1,1027,198425
1,1028,198412
1,1029,198466
1,1030,198485
1,1031,198409
1,1032,198415
1,1033,198405
1,1034,198373
1,1035,198477
1,1036,198468
1,1037,198439
1,1038,198427
1,1039,198267
1,1040,198395
1,1041,198451
1,1042,198291
1,1043,198380
1,1044,198366
1,1045,198347
1,1046,198408
1,1047,198378
1,1048,198315
1,1049,198322
1,1050,198344
1,1051,198297
1,1052,198330
1,1053,198402
1,1054,198470
1,1055,198382
1,1056,198335
1,1057,198460
1,1058,198314
1,1059,198390
1,1060,198355
1,1061,198422
1,1062,198372
1,1063,198349
1,1064,198387
1,1065,198453
1,1066,198457
1,1067,198507
1,1068,198441
1,1069,198408
1,1070,198399
1,1071,198329
1,1072,198333
1,1073,198386
1,1074,198254
1,1075,198237
1,1076,198351
1,1077,198299
1,1078,198223
1,1079,198290
1,1080,198176
1,1081,198324
1,1082,198249
1,1083,198220
1,1084,198243
1,1085,198291
1,1086,198285
1,1087,198219
1,1088,198173
1,1089,198175
1,1090,198282
1,1091,198279
1,1092,198184
1,1093,198278
1,1094,198213
1,1095,198279
1,1096,198255
1,1097,198170
1,1098,198169
1,1099,198277
1,1100,198167
1,1101,198214
1,1102,198237
1,1103,198258
1,1104,198211
1,1105,198277
1,1106,198249
1,1107,198201
1,1108,198216
1,1109,198221
1,1110,198267
1,1111,198144
1,1112,198132
1,1113,198080
1,1114,198192
1,1115,198255
1,1116,198280
1,1117,198202
1,1118,198167
1,1119,198197
1,1120,198411
1,1121,198339
1,1122,198299
1,1123,198344
1,1124,198338
1,1125,198288
1,1126,198280
1,1127,198345
1,1128,198274
1,1129,198237
1,1130,198311
1,1131,198304
1,1132,198260
1,1133,198199
1,1134,198198
1,1135,198122
1,1136,198189
1,1137,198174
1,1138,198178
1,1139,198284
1,1140,198206
1,1141,198210
1,1142,198301
1,1143,198214
1,1144,198133
1,1145,198120
1,1146,198429
1,1147,198072
1,1148,198133
1,1149,198116
1,1150,198086
1,1151,198207
1,1152,198125
1,1153,198162
1,1154,198040
1,1155,198066
1,1156,198137
1,1157,198109
1,1158,198237
1,1159,198048
1,1160,198104
1,1161,198133
1,1162,198083
1,1163,198048
1,1164,198051
1,1165,198075
1,1166,197998
1,1167,198031
1,1168,198068
1,1169,198166
1,1170,198165
1,1171,198071
1,1172,197997
1,1173,197978
1,1174,198024
1,1175,197944
1,1176,197908
1,1177,198027
1,1178,197920
1,1179,197975
1,1180,197969
1,1181,197973
1,1182,198037
1,1183,198071
1,1184,197988
1,1185,197996
1,1186,197979
1,1187,197954
1,1188,197995
1,1189,197932
1,1190,197914
1,1191,197978
1,1192,197948
1,1193,197963
1,1194,197924
1,1195,197887
1,1196,197872
1,1197,197952
1,1198,197921
1,1199,197906
1,1200,197902
1,1201,197899
1,1202,197897
1,1203,197857
1,1204,197975
1,1205,198052
1,1206,197863
1,1207,197851
1,1208,197998
1,1209,197895
1,1210,197993
1,1211,197960
1,1212,197872
1,1213,197788
1,1214,197936
1,1215,197895
1,1216,197896
1,1217,197823
1,1218,197832
1,1219,197855
1,1220,197951
1,1221,197880
1,1222,197935
1,1223,197942
1,1224,197942
1,1225,197910
1,1226,197856
1,1227,197838
1,1228,197858
1,1229,198004
1,1230,197970
1,1231,197888
1,1232,197987
1,1233,197871
1,1234,197905
1,1235,197790
1,1236,197860
1,1237,197871
1,1238,197929
1,1239,197810
1,1240,197838
1,1241,197822
1,1242,197848
1,1243,197865
1,1244,197821
1,1245,197720
1,1246,197868
1,1247,197868
1,1248,197835
1,1249,197855
1,1250,197786
1,1251,197925
1,1252,197768
1,1253,197851
1,1254,197703
1,1255,197820
1,1256,197771
1,1257,197710
1,1258,197762
1,1259,197721
1,1260,197710
1,1261,197701
1,1262,197743
1,1263,197658
1,1264,197687
1,1265,197706
1,1266,197581
1,1267,197648
1,1268,197744
1,1269,197652
1,1270,197612
1,1271,197542
1,1272,197595
1,1273,197565
1,1274,197657
1,1275,197567
1,1276,197520
1,1277,197572
1,1278,197563
1,1279,197495
1,1280,197552
1,1281,197531
1,1282,197438
1,1283,197406
1,1284,197378
1,1285,197299
1,1286,197327
1,1287,197338
1,1288,197184
1,1289,197297
1,1290,197313
1,1291,197207
1,1292,197269
1,1293,197260
1,1294,197094
1,1295,197189
1,1296,197173
1,1297,197021
1,1298,197119
1,1299,197083
1,1300,196961
1,1301,197008
1,1302,196895
1,1303,197007
1,1304,197010
1,1305,197018
1,1306,196893
1,1307,196850
1,1308,196902
1,1309,196833
1,1310,196906
1,1311,196825
1,1312,196702
1,1313,196796
1,1314,196810
1,1315,196725
1,1316,196842
1,1317,196723
1,1318,196668
1,1319,196655
1,1320,196598
1,1321,196538
1,1322,196656
1,1323,196701
1,1324,196584
1,1325,196517
1,1326,196524
1,1327,196394
1,1328,196441
1,1329,196368
1,1330,196358
1,1331,196279
1,1332,196275
1,1333,196147
1,1334,196108
1,1335,196165
1,1336,195922
1,1337,195845
1,1338,195792
1,1339,194850
1,1340,220919
