1,1,82164
1,2,82029
1,3,82206
1,4,81968
1,5,82180
1,6,82311
1,7,82281
1,8,82224
1,9,82294
1,10,82371
1,11,82298
1,12,82359
1,13,82453
1,14,82540
1,15,82478
1,16,82514
1,17,82486
1,18,82668
1,19,82798
1,20,82715
1,21,82676
1,22,82629
1,23,82745
1,24,82871
1,25,82807
1,26,82907
1,27,82860
1,28,82754
1,29,82895
1,30,82778
1,31,82727
1,32,82953
1,33,83188
1,34,83133
1,35,83096
1,36,82996
1,37,83047
1,38,83039
1,39,83068
1,40,83313
1,41,83170
1,42,83445
1,43,83298
1,44,83219
1,45,83240
1,46,83348
1,47,83434
1,48,83268
1,49,83368
1,50,83257
1,51,83272
1,52,83463
1,53,83413
1,54,83419
1,55,83502
1,56,83384
1,57,83345
1,58,83350
1,59,83585
1,60,83552
1,61,83614
1,62,83478
1,63,83446
1,64,83270
1,65,83637
1,66,83418
1,67,83614
1,68,83383
1,69,83269
1,70,83184
1,71,83083
1,72,83061
1,73,82511
1,74,82584
1,75,82308
1,76,81997
1,77,81857
1,78,81702
1,79,81467
1,80,81386
1,81,81200
1,82,81018
1,83,80830
1,84,80752
1,85,80498
1,86,80320
1,87,80044
1,88,79838
1,89,79730
1,90,79692
1,91,79416
1,92,79342
1,93,79249
1,94,79040
1,95,78986
1,96,78780
1,97,78665
1,98,78634
1,99,78502
1,100,78383
1,101,78114
1,102,78162
1,103,78042
1,104,77942
1,105,78047
1,106,77749
1,107,77879
1,108,77871
1,109,77883
1,110,77773
1,111,77676
1,112,77649
1,113,77823
1,114,77677
1,115,77644
1,116,77606
1,117,77639
1,118,77665
1,119,77571
1,120,77684
1,121,77638
1,122,77582
1,123,77603
1,124,77621
1,125,77515
1,126,77646
1,127,77662
1,128,77657
1,129,77746
1,130,77686
1,131,77637
1,132,77762
1,133,77651
1,134,77574
1,135,77677
1,136,77671
1,137,77679
1,138,77673
1,139,77637
1,140,77611
1,141,77648
1,142,77732
1,143,77802
1,144,77553
1,145,77679
1,146,77552
1,147,77568
1,148,77583
1,149,77648
1,150,77681
1,151,77629
1,152,77497
1,153,77521
1,154,77675
1,155,77656
1,156,77653
1,157,77529
1,158,77740
1,159,77608
1,160,77708
1,161,77710
1,162,77690
1,163,77761
1,164,77714
1,165,77839
1,166,77659
1,167,77730
1,168,77678
1,169,77760
1,170,77680
1,171,77648
1,172,77654
1,173,77760
1,174,77770
1,175,77641
1,176,77686
1,177,77862
1,178,77745
1,179,77775
1,180,77711
1,181,77787
1,182,77717
1,183,77669
1,184,77809
1,185,77755
1,186,77847
1,187,77747
1,188,77927
1,189,77998
1,190,77981
1,191,78006
1,192,78037
1,193,78142
1,194,78263
1,195,78337
1,196,78406
1,197,78502
1,198,78508
1,199,78747
1,200,79128
1,201,79062
1,202,79225
1,203,79433
1,204,79538
1,205,79753
1,206,79971
1,207,80188
1,208,80490
1,209,80599
1,210,81007
1,211,81125
1,212,81371
1,213,81726
1,214,81922
1,215,82092
1,216,82601
1,217,82660
1,218,82730
1,219,82990
1,220,83364
1,221,83550
1,222,83367
1,223,84032
1,224,84342
1,225,84414
1,226,84427
1,227,84705
1,228,84700
1,229,85126
1,230,85283
1,231,85333
1,232,85575
1,233,85723
1,234,85744
1,235,86052
1,236,86286
1,237,86369
1,238,86283
1,239,86464
1,240,86635
1,241,86834
1,242,87064
1,243,86876
1,244,87163
1,245,87207
1,246,87567
1,247,87549
1,248,87759
1,249,87823
1,250,88125
1,251,88104
1,252,88186
1,253,88347
1,254,88480
1,255,88564
1,256,88713
1,257,88651
1,258,88675
1,259,88814
1,260,88991
1,261,89181
1,262,89276
1,263,89018
1,264,89565
1,265,89541
1,266,89639
1,267,89633
1,268,89604
1,269,89812
1,270,89711
1,271,89808
1,272,89815
1,273,89972
1,274,89993
1,275,90096
1,276,90152
1,277,90210
1,278,90243
1,279,90304
1,280,90479
1,281,90590
1,282,90757
1,283,90831
1,284,90666
1,285,90708
1,286,90715
1,287,90612
1,288,90791
1,289,90823
1,290,90776
1,291,91103
1,292,91118
1,293,91103
1,294,91347
1,295,91122
1,296,91116
1,297,90933
1,298,91342
1,299,91361
1,300,91388
1,301,91320
1,302,91434
1,303,91607
1,304,91574
1,305,91526
1,306,91826
1,307,91676
1,308,91556
1,309,91644
1,310,91660
1,311,91489
1,312,91731
1,313,91985
1,314,91944
1,315,92037
1,316,91758
1,317,91926
1,318,92284
1,319,92196
1,320,92177
1,321,91948
1,322,91955
1,323,92019
1,324,92254
1,325,92204
1,326,92255
1,327,92375
1,328,92054
1,329,92201
1,330,92325
1,331,92568
1,332,92452
1,333,92473
1,334,92296
1,335,92467
1,336,92406
1,337,92434
1,338,92780
1,339,92625
1,340,92670
1,341,92990
1,342,92747
1,343,92793
1,344,92625
1,345,92862
1,346,93022
1,347,92766
1,348,92868
1,349,92793
1,350,93002
1,351,93064
1,352,93209
1,353,93043
1,354,92914
1,355,93297
1,356,93382
1,357,93225
1,358,93103
1,359,93366
1,360,93230
1,361,93273
1,362,93541
1,363,93459
1,364,93549
1,365,93406
1,366,93395
1,367,93399
1,368,93482
1,369,93555
1,370,93554
1,371,93663
1,372,93720
1,373,93837
1,374,93763
1,375,93644
1,376,93799
1,377,93782
1,378,93866
1,379,94095
1,380,93892
1,381,94111
1,382,94098
1,383,94002
1,384,93905
1,385,93924
1,386,93963
1,387,93933
1,388,93915
1,389,94236
1,390,94338
1,391,94157
1,392,94519
1,393,94711
1,394,94422
1,395,94479
1,396,94532
1,397,94391
1,398,94403
1,399,94582
1,400,94465
1,401,94434
1,402,94419
1,403,94625
1,404,94621
1,405,94543
1,406,94643
1,407,94735
1,408,94800
1,409,95128
1,410,94907
1,411,94994
1,412,94931
1,413,95123
1,414,94706
1,415,95029
1,416,94915
1,417,94836
1,418,95053
1,419,95563
1,420,95514
1,421,95315
1,422,95333
1,423,95488
1,424,95617
1,425,95434
1,426,95275
1,427,95266
1,428,95689
1,429,95356
1,430,95336
1,431,95564
1,432,95454
1,433,95512
1,434,95712
1,435,95601
1,436,95650
1,437,95757
1,438,95706
1,439,95838
1,440,96102
1,441,95815
1,442,95987
1,443,95925
1,444,96013
1,445,96286
1,446,96182
1,447,96109
1,448,96366
1,449,96035
1,450,96321
1,451,96112
1,452,96185
1,453,96413
1,454,96449
1,455,96346
1,456,96148
1,457,96563
1,458,96368
1,459,96563
1,460,96379
1,461,96514
1,462,96604
1,463,96536
1,464,96553
1,465,96551
1,466,96497
1,467,96425
1,468,96726
1,469,96865
1,470,96802
1,471,96954
1,472,96887
1,473,96911
1,474,97180
1,475,96951
1,476,96972
1,477,96847
1,478,97327
1,479,97311
1,480,97013
1,481,96880
1,482,97284
1,483,97435
1,484,97197
1,485,97317
1,486,97498
1,487,97364
1,488,97309
1,489,97261
1,490,97359
1,491,97495
1,492,97388
1,493,97346
1,494,97327
1,495,97461
1,496,97434
1,497,97424
1,498,97971
1,499,97922
1,500,97740
1,501,97683
1,502,97790
1,503,97892
1,504,98081
1,505,97984
1,506,98126
1,507,98126
1,508,98099
1,509,98108
1,510,97941
1,511,98051
1,512,97893
1,513,98017
1,514,98368
1,515,98010
1,516,98345
1,517,98103
1,518,98281
1,519,98223
1,520,98349
1,521,98335
1,522,98415
1,523,98679
1,524,98390
1,525,98444
1,526,98672
1,527,98564
1,528,98506
1,529,98688
1,530,98802
1,531,98942
1,532,98682
1,533,98719
1,534,98525
1,535,98919
1,536,98968
1,537,98922
1,538,98894
1,539,99259
1,540,98831
1,541,98670
1,542,99224
1,543,98926
1,544,99322
1,545,99284
1,546,99310
1,547,99423
1,548,99501
1,549,99602
1,550,99205
1,551,99252
1,552,99372
1,553,99157
1,554,99414
1,555,99514
1,556,99309
1,557,99587
1,558,99635
1,559,99737
1,560,99919
1,561,99795
1,562,99726
1,563,99778
1,564,99892
1,565,99828
1,566,99679
1,567,99801
1,568,100256
1,569,100005
1,570,99733
1,571,99909
1,572,100315
1,573,100127
1,574,99947
1,575,100394
1,576,100420
1,577,100114
1,578,100219
1,579,100273
1,580,100427
1,581,100352
1,582,100567
1,583,100521
1,584,100527
1,585,100504
1,586,100471
1,587,100129
1,588,100399
1,589,100568
1,590,100483
1,591,100438
1,592,100734
1,593,100642
1,594,100686
1,595,100616
1,596,100792
1,597,100883
1,598,100703
1,599,101026
1,600,100665
1,601,101236
1,602,100811
1,603,100754
1,604,101042
1,605,101048
1,606,101277
1,607,101133
1,608,101105
1,609,101206
1,610,100913
1,611,101110
1,612,101149
1,613,101204
1,614,101445
1,615,101560
1,616,101423
1,617,101476
1,618,101347
1,619,101376
1,620,101621
1,621,101155
1,622,101583
1,623,101680
1,624,101606
1,625,101316
1,626,101841
1,627,101816
1,628,101611
1,629,101611
1,630,101774
1,631,101812
1,632,101884
1,633,101773
1,634,102248
1,635,102045
1,636,101915
1,637,102287
1,638,102224
1,639,101890
1,640,102128
1,641,102092
1,642,102079
1,643,102196
1,644,102097
1,645,101934
1,646,102220
1,647,102058
1,648,102447
1,649,102444
1,650,102420
1,651,102442
1,652,102861
1,653,102798
1,654,102584
1,655,102456
1,656,102398
1,657,102569
1,658,102541
1,659,102767
1,660,102540
1,661,102781
1,662,102784
1,663,102734
1,664,102585
1,665,102794
1,666,102695
1,667,102983
1,668,102932
1,669,102898
1,670,102973
1,671,103174
1,672,103036
1,673,103349
1,674,102981
1,675,102908
1,676,103220
1,677,103313
1,678,103192
1,679,102991
1,680,103191
1,681,103438
1,682,103268
1,683,103152
1,684,103674
1,685,103642
1,686,103497
1,687,103655
1,688,103853
1,689,103578
1,690,103361
1,691,103562
1,692,103445
1,693,103670
1,694,103881
1,695,103588
1,696,103669
1,697,103609
1,698,103894
1,699,103890
1,700,103597
1,701,103521
1,702,103647
1,703,103607
1,704,103496
1,705,104150
1,706,104210
1,707,104089
1,708,104230
1,709,104191
1,710,104006
1,711,104066
1,712,104347
1,713,104282
1,714,104337
1,715,104194
1,716,104360
1,717,104438
1,718,104227
1,719,104271
1,720,104282
1,721,104216
1,722,104274
1,723,104412
1,724,104444
1,725,104324
1,726,104367
1,727,104451
1,728,104272
1,729,104397
1,730,104437
1,731,104335
1,732,104522
1,733,104815
1,734,104399
1,735,104626
1,736,104458
1,737,104759
1,738,104744
1,739,104851
1,740,104690
1,741,104821
1,742,104805
1,743,104947
1,744,104829
1,745,105172
1,746,104917
1,747,104649
1,748,105223
1,749,105074
1,750,105049
1,751,105104
1,752,105352
1,753,104679
1,754,105070
1,755,105026
1,756,105341
1,757,105244
1,758,105330
1,759,105565
1,760,105606
1,761,105263
1,762,105319
1,763,105496
1,764,105551
1,765,105569
1,766,105381
1,767,105536
1,768,105620
1,769,105377
1,770,105287
1,771,105768
1,772,105474
1,773,105732
1,774,105689
1,775,105577
1,776,105583
1,777,105200
1,778,105525
1,779,105498
1,780,105833
1,781,105786
1,782,105680
1,783,105853
1,784,105843
1,785,105633
1,786,105747
1,787,105867
1,788,105792
1,789,105767
1,790,105910
1,791,105911
1,792,105889
1,793,105858
1,794,106058
1,795,106003
1,796,106255
1,797,106103
1,798,106219
1,799,106081
1,800,105875
1,801,105993
1,802,106036
1,803,106126
1,804,106142
1,805,106121
1,806,106336
1,807,106113
1,808,106150
1,809,106136
1,810,105972
1,811,106465
1,812,106315
1,813,106291
1,814,106200
1,815,106366
1,816,106680
1,817,106448
1,818,106452
1,819,106602
1,820,106497
1,821,106332
1,822,106357
1,823,106489
1,824,106533
1,825,106448
1,826,106451
1,827,106520
1,828,106956
1,829,106655
1,830,106750
1,831,106805
1,832,107008
1,833,107116
1,834,106665
1,835,106853
1,836,107292
1,837,106691
1,838,106945
1,839,106669
1,840,106657
1,841,107298
1,842,107114
1,843,106918
1,844,107034
1,845,106732
1,846,107021
1,847,106823
1,848,106753
1,849,106968
1,850,107434
1,851,106864
1,852,107337
1,853,107290
1,854,107335
1,855,107445
1,856,106804
1,857,107035
1,858,107132
1,859,107065
1,860,107253
1,861,106952
1,862,107252
1,863,107172
1,864,107560
1,865,107252
1,866,107101
1,867,107531
1,868,107263
1,869,107388
1,870,107446
1,871,107454
1,872,107612
1,873,107656
1,874,107383
1,875,107450
1,876,107332
1,877,107702
1,878,107360
1,879,107255
1,880,107686
1,881,107383
1,882,107344
1,883,107712
1,884,107496
1,885,107475
1,886,107700
1,887,107739
1,888,107937
1,889,107789
1,890,107548
1,891,107499
1,892,107189
1,893,107387
1,894,107514
1,895,107859
1,896,107628
1,897,107433
1,898,107919
1,899,107953
1,900,107799
1,901,107961
1,902,108002
1,903,107945
1,904,107819
1,905,107735
1,906,107691
1,907,107693
1,908,107574
1,909,107723
1,910,107897
1,911,107589
1,912,107767
1,913,107967
1,914,107737
1,915,107906
1,916,107768
1,917,107910
1,918,107684
1,919,107985
1,920,108029
1,921,108060
1,922,107942
1,923,108071
1,924,108273
1,925,108215
1,926,107800
1,927,108056
1,928,107903
1,929,108225
1,930,108143
1,931,108094
1,932,107835
1,933,108085
1,934,107896
1,935,108301
1,936,108212
1,937,107988
1,938,108082
1,939,108154
1,940,107997
1,941,108036
1,942,108090
1,943,108204
1,944,108025
1,945,108160
1,946,108237
1,947,107935
1,948,107974
1,949,107863
1,950,108178
1,951,108209
1,952,107831
1,953,108360
1,954,108003
1,955,107846
1,956,108288
1,957,108206
1,958,108005
1,959,108085
1,960,107716
1,961,108010
1,962,108038
1,963,108385
1,964,108461
1,965,107873
1,966,108382
1,967,108200
1,968,108341
1,969,108201
1,970,108239
1,971,108086
1,972,108152
1,973,108154
1,974,108278
1,975,107884
1,976,108380
1,977,107906
1,978,108035
1,979,108189
1,980,107839
1,981,108119
1,982,108109
1,983,107774
1,984,107954
1,985,108381
1,986,108209
1,987,108039
1,988,108258
1,989,107766
1,990,108325
1,991,108343
1,992,108004
1,993,108342
1,994,108101
1,995,108271
1,996,107951
1,997,108149
1,998,108242
1,999,108339
1,1000,108056
1,1001,108448
1,1002,107931
1,1003,108193
1,1004,108020
1,1005,108333
1,1006,107956
1,1007,108103
1,1008,108331
1,1009,108216
1,1010,108103
1,1011,108225
1,1012,108051
1,1013,107913
1,1014,108282
1,1015,108226
1,1016,108103
1,1017,108079
1,1018,108109
1,1019,108184
1,1020,108137
1,1021,107948
1,1022,108065
1,1023,108306
1,1024,108057
1,1025,107872
1,1026,108039
1,1027,108151
1,1028,108031
1,1029,107732
1,1030,107830
1,1031,107812
1,1032,108205
1,1033,108269
1,1034,108394
1,1035,108166
1,1036,107845
1,1037,107941
1,1038,107872
1,1039,107721
1,1040,107877
1,1041,107981
1,1042,108113
1,1043,108167
1,1044,108354
1,1045,108168
1,1046,108170
1,1047,107823
1,1048,108132
1,1049,107965
1,1050,107872
1,1051,108118
1,1052,108040
1,1053,107989
1,1054,107790
1,1055,108004
1,1056,108310
1,1057,107934
1,1058,107818
1,1059,107928
1,1060,107781
1,1061,108001
1,1062,107977
1,1063,107686
1,1064,107716
1,1065,107532
1,1066,108112
1,1067,107979
1,1068,107718
1,1069,108103
1,1070,107854
1,1071,107496
1,1072,107659
1,1073,108024
1,1074,107534
1,1075,107661
1,1076,107616
1,1077,107706
1,1078,107597
1,1079,107677
1,1080,107841
1,1081,107924
1,1082,107727
1,1083,107632
1,1084,107907
1,1085,107648
1,1086,107706
1,1087,107787
1,1088,107354
1,1089,107413
1,1090,107837
1,1091,107258
1,1092,107466
1,1093,107615
1,1094,107271
1,1095,107489
1,1096,107198
1,1097,107774
1,1098,107627
1,1099,107651
1,1100,107639
1,1101,107212
1,1102,107454
1,1103,107606
1,1104,107669
1,1105,107447
1,1106,107300
1,1107,107521
1,1108,107278
1,1109,107365
1,1110,107126
1,1111,107462
1,1112,107613
1,1113,107591
1,1114,107582
1,1115,107377
1,1116,107380
1,1117,107156
1,1118,107536
1,1119,107267
1,1120,107146
1,1121,107256
1,1122,107354
1,1123,107471
1,1124,107154
1,1125,107260
1,1126,107032
1,1127,107341
1,1128,107146
1,1129,106832
1,1130,107136
1,1131,107124
1,1132,107066
1,1133,106930
1,1134,106870
1,1135,107164
1,1136,106832
1,1137,107023
1,1138,107023
1,1139,106877
1,1140,106824
1,1141,107076
1,1142,107319
1,1143,106829
1,1144,107166
1,1145,107021
1,1146,107026
1,1147,107139
1,1148,107262
1,1149,107027
1,1150,106923
1,1151,106960
1,1152,106829
1,1153,106600
1,1154,106909
1,1155,106706
1,1156,106611
1,1157,106642
1,1158,106630
1,1159,106850
1,1160,106569
1,1161,106925
1,1162,106579
1,1163,106394
1,1164,107055
1,1165,106645
1,1166,106758
1,1167,106622
1,1168,106622
1,1169,106465
1,1170,106536
1,1171,106445
1,1172,106191
1,1173,106693
1,1174,106368
1,1175,106255
1,1176,106227
1,1177,106284
1,1178,106663
1,1179,106180
1,1180,106327
1,1181,106251
1,1182,106223
1,1183,106296
1,1184,106065
1,1185,105952
1,1186,106114
1,1187,105870
1,1188,106125
1,1189,106092
1,1190,106119
1,1191,105826
1,1192,106157
1,1193,106002
1,1194,105896
1,1195,105997
1,1196,105718
1,1197,105735
1,1198,105931
1,1199,105892
1,1200,105688
1,1201,105922
1,1202,105776
1,1203,105608
1,1204,105914
1,1205,105669
1,1206,105652
1,1207,105265
1,1208,105720
1,1209,105663
1,1210,105603
1,1211,105776
1,1212,105927
1,1213,105838
1,1214,105413
1,1215,105727
1,1216,105747
1,1217,105322
1,1218,105624
1,1219,105499
1,1220,105480
1,1221,105412
1,1222,105201
1,1223,105369
1,1224,105358
1,1225,105042
1,1226,105505
1,1227,105173
1,1228,105034
1,1229,105244
1,1230,104845
1,1231,105115
1,1232,105031
1,1233,104947
1,1234,105390
1,1235,104904
1,1236,105053
1,1237,104949
1,1238,104946
1,1239,104969
1,1240,104468
1,1241,104632
1,1242,104654
1,1243,104850
1,1244,104415
1,1245,104503
1,1246,104742
1,1247,104558
1,1248,104250
1,1249,104086
1,1250,104361
1,1251,104076
1,1252,103891
1,1253,103936
1,1254,103763
1,1255,103748
1,1256,103735
1,1257,103363
1,1258,103299
1,1259,103582
1,1260,103376
1,1261,103265
1,1262,103206
1,1263,103161
1,1264,103062
1,1265,103002
1,1266,102927
1,1267,102859
1,1268,102495
1,1269,102363
1,1270,102515
1,1271,102604
1,1272,102347
1,1273,102025
1,1274,102138
1,1275,101871
1,1276,101960
1,1277,101754
1,1278,101392
1,1279,101103
1,1280,101155
1,1281,101220
1,1282,100647
1,1283,101233
1,1284,100654
1,1285,100421
1,1286,100495
1,1287,100186
1,1288,100003
1,1289,100095
1,1290,99898
1,1291,99562
1,1292,99649
1,1293,99234
1,1294,99154
1,1295,99167
1,1296,98826
1,1297,98740
1,1298,98591
1,1299,98266
1,1300,98323
1,1301,97862
1,1302,97788
1,1303,97500
1,1304,97669
1,1305,97684
1,1306,97287
1,1307,97273
1,1308,96883
1,1309,96892
1,1310,96514
1,1311,96482
1,1312,96065
1,1313,96060
1,1314,95978
1,1315,95741
1,1316,95429
1,1317,95289
1,1318,95311
1,1319,95576
1,1320,95000
1,1321,94841
1,1322,94724
1,1323,94405
1,1324,94228
1,1325,94137
1,1326,93970
1,1327,93924
1,1328,93649
1,1329,93611
1,1330,93163
1,1331,92860
1,1332,92945
1,1333,92602
1,1334,92176
1,1335,91995
1,1336,91545
1,1337,91582
1,1338,91614
1,1339,90056
1,1340,130836
