1,1,77461
1,2,77288
1,3,77348
1,4,77385
1,5,77364
1,6,77331
1,7,77486
1,8,77491
1,9,77461
1,10,77335
1,11,77419
1,12,77525
1,13,77250
1,14,77353
1,15,77360
1,16,77472
1,17,77368
1,18,77512
1,19,77319
1,20,77355
1,21,77479
1,22,77429
1,23,77415
1,24,77271
1,25,77457
1,26,77455
1,27,77502
1,28,77472
1,29,77408
1,30,77487
1,31,77564
1,32,77403
1,33,77284
1,34,77510
1,35,77443
1,36,77249
1,37,77393
1,38,77490
1,39,77458
1,40,77424
1,41,77380
1,42,77386
1,43,77373
1,44,77430
1,45,77383
1,46,77447
1,47,77454
1,48,77471
1,49,77410
1,50,77347
1,51,77374
1,52,77348
1,53,77274
1,54,77468
1,55,77408
1,56,77429
1,57,77456
1,58,77327
1,59,77465
1,60,77370
1,61,77341
1,62,77294
1,63,77474
1,64,77304
1,65,77450
1,66,77381
1,67,77378
1,68,77401
1,69,77197
1,70,77267
1,71,77341
1,72,77382
1,73,77432
1,74,77516
1,75,77382
1,76,77413
1,77,77371
1,78,77307
1,79,77300
1,80,77437
1,81,77468
1,82,77409
1,83,77501
1,84,77433
1,85,77424
1,86,77358
1,87,77407
1,88,77457
1,89,77365
1,90,77447
1,91,77291
1,92,77397
1,93,77418
1,94,77339
1,95,77512
1,96,77414
1,97,77251
1,98,77404
1,99,77378
1,100,77326
1,101,77331
1,102,77458
1,103,77446
1,104,77396
1,105,77476
1,106,77388
1,107,77354
1,108,77327
1,109,77496
1,110,77429
1,111,77320
1,112,77369
1,113,77343
1,114,77232
1,115,77339
1,116,77388
1,117,77359
1,118,77401
1,119,77337
1,120,77459
1,121,77337
1,122,77315
1,123,77357
1,124,77344
1,125,77297
1,126,77312
1,127,77374
1,128,77368
1,129,77411
1,130,77433
1,131,77289
1,132,77307
1,133,77260
1,134,77426
1,135,77474
1,136,77385
1,137,77273
1,138,77321
1,139,77434
1,140,77424
1,141,77350
1,142,77445
1,143,77266
1,144,77320
1,145,77244
1,146,77279
1,147,77310
1,148,77403
1,149,77333
1,150,77362
1,151,77449
1,152,77404
1,153,77392
1,154,77317
1,155,77478
1,156,77466
1,157,77287
1,158,77416
1,159,77459
1,160,77354
1,161,77452
1,162,77376
1,163,77312
1,164,77376
1,165,77283
1,166,77279
1,167,77408
1,168,77464
1,169,77454
1,170,77351
1,171,77311
1,172,77430
1,173,77305
1,174,77387
1,175,77400
1,176,77373
1,177,77367
1,178,77423
1,179,77414
1,180,77480
1,181,77406
1,182,77395
1,183,77318
1,184,77494
1,185,77454
1,186,77495
1,187,77333
1,188,77265
1,189,77354
1,190,77428
1,191,77351
1,192,77487
1,193,77347
1,194,77315
1,195,77408
1,196,77264
1,197,77368
1,198,77460
1,199,77304
1,200,77346
1,201,77377
1,202,77537
1,203,77384
1,204,77304
1,205,77210
1,206,77411
1,207,77455
1,208,77466
1,209,77426
1,210,77369
1,211,77346
1,212,77391
1,213,77390
1,214,77410
1,215,77278
1,216,77352
1,217,77419
1,218,77395
1,219,77454
1,220,77402
1,221,77324
1,222,77343
1,223,77455
1,224,77323
1,225,77466
1,226,77434
1,227,77505
1,228,77295
1,229,77518
1,230,77430
1,231,77355
1,232,77429
1,233,77345
1,234,77361
1,235,77426
1,236,77550
1,237,77391
1,238,77317
1,239,77391
1,240,77444
1,241,77356
1,242,77418
1,243,77368
1,244,77394
1,245,77440
1,246,77369
1,247,77495
1,248,77469
1,249,77579
1,250,77403
1,251,77351
1,252,77371
1,253,77315
1,254,77415
1,255,77416
1,256,77511
1,257,77490
1,258,77451
1,259,77499
1,260,77242
1,261,77392
1,262,77427
1,263,77429
1,264,77286
1,265,77342
1,266,77485
1,267,77443
1,268,77332
1,269,77501
1,270,77292
1,271,77302
1,272,77355
1,273,77294
1,274,77472
1,275,77495
1,276,77392
1,277,77409
1,278,77458
1,279,77392
1,280,77312
1,281,77418
1,282,77186
1,283,77484
1,284,77473
1,285,77254
1,286,77423
1,287,77402
1,288,77483
1,289,77526
1,290,77453
1,291,77417
1,292,77323
1,293,77366
1,294,77385
1,295,77375
1,296,77521
1,297,77270
1,298,77407
1,299,77400
1,300,77509
1,301,77450
1,302,77435
1,303,77400
1,304,77432
1,305,77363
1,306,77381
1,307,77332
1,308,77496
1,309,77303
1,310,77557
1,311,77444
1,312,77400
1,313,77380
1,314,77391
1,315,77408
1,316,77486
1,317,77444
1,318,77339
1,319,77492
1,320,77523
1,321,77470
1,322,77373
1,323,77437
1,324,77359
1,325,77486
1,326,77361
1,327,77516
1,328,77506
1,329,77352
1,330,77409
1,331,77412
1,332,77447
1,333,77421
1,334,77404
1,335,77413
1,336,77418
1,337,77262
1,338,77401
1,339,77488
1,340,77532
1,341,77459
1,342,77416
1,343,77404
1,344,77456
1,345,77408
1,346,77432
1,347,77463
1,348,77401
1,349,77358
1,350,77353
1,351,77484
1,352,77401
1,353,77389
1,354,77418
1,355,77414
1,356,77398
1,357,77361
1,358,77349
1,359,77373
1,360,77481
1,361,77534
1,362,77375
1,363,77340
1,364,77333
1,365,77469
1,366,77471
1,367,77427
1,368,77581
1,369,77452
1,370,77394
1,371,77383
1,372,77368
1,373,77379
1,374,77393
1,375,77461
1,376,77364
1,377,77475
1,378,77462
1,379,77494
1,380,77310
1,381,77498
1,382,77503
1,383,77435
1,384,77423
1,385,77368
1,386,77455
1,387,77422
1,388,77437
1,389,77394
1,390,77428
1,391,77304
1,392,77355
1,393,77287
1,394,77442
1,395,77580
1,396,77547
1,397,77497
1,398,77470
1,399,77350
1,400,77346
1,401,77323
1,402,77486
1,403,77498
1,404,77421
1,405,77372
1,406,77374
1,407,77451
1,408,77380
1,409,77411
1,410,77342
1,411,77314
1,412,77321
1,413,77385
1,414,77622
1,415,77460
1,416,77310
1,417,77299
1,418,77344
1,419,77457
1,420,77457
1,421,77594
1,422,77383
1,423,77259
1,424,77375
1,425,77366
1,426,77335
1,427,77463
1,428,77483
1,429,77451
1,430,77457
1,431,77466
1,432,77370
1,433,77481
1,434,77365
1,435,77450
1,436,77267
1,437,77509
1,438,77468
1,439,77423
1,440,77461
1,441,77484
1,442,77349
1,443,77326
1,444,77466
1,445,77475
1,446,77436
1,447,77485
1,448,77505
1,449,77312
1,450,77421
1,451,77457
1,452,77480
1,453,77302
1,454,77439
1,455,77450
1,456,77494
1,457,77447
1,458,77410
1,459,77537
1,460,77473
1,461,77430
1,462,77503
1,463,77361
1,464,77376
1,465,77394
1,466,77484
1,467,77477
1,468,77315
1,469,77437
1,470,77468
1,471,77382
1,472,77441
1,473,77364
1,474,77450
1,475,77589
1,476,77423
1,477,77292
1,478,77366
1,479,77505
1,480,77362
1,481,77315
1,482,77340
1,483,77523
1,484,77489
1,485,77513
1,486,77361
1,487,77377
1,488,77337
1,489,77385
1,490,77299
1,491,77451
1,492,77437
1,493,77397
1,494,77488
1,495,77483
1,496,77308
1,497,77419
1,498,77414
1,499,77475
1,500,77456
1,501,77465
1,502,77514
1,503,77433
1,504,77339
1,505,77482
1,506,77467
1,507,77515
1,508,77407
1,509,77370
1,510,77350
1,511,77497
1,512,77451
1,513,77399
1,514,77422
1,515,77504
1,516,77502
1,517,77487
1,518,77449
1,519,77332
1,520,77230
1,521,77437
1,522,77424
1,523,77391
1,524,77451
1,525,77399
1,526,77471
1,527,77474
1,528,77348
1,529,77547
1,530,77537
1,531,77399
1,532,77449
1,533,77349
1,534,77435
1,535,77368
1,536,77306
1,537,77473
1,538,77469
1,539,77609
1,540,77456
1,541,77357
1,542,77314
1,543,77547
1,544,77402
1,545,77402
1,546,77457
1,547,77341
1,548,77339
1,549,77486
1,550,77501
1,551,77373
1,552,77440
1,553,77467
1,554,77460
1,555,77559
1,556,77401
1,557,77443
1,558,77371
1,559,77380
1,560,77474
1,561,77599
1,562,77500
1,563,77464
1,564,77499
1,565,77421
1,566,77524
1,567,77356
1,568,77435
1,569,77388
1,570,77259
1,571,77408
1,572,77531
1,573,77388
1,574,77280
1,575,77365
1,576,77502
1,577,77495
1,578,77400
1,579,77399
1,580,77371
1,581,77470
1,582,77426
1,583,77392
1,584,77392
1,585,77327
1,586,77480
1,587,77451
1,588,77471
1,589,77377
1,590,77379
1,591,77512
1,592,77462
1,593,77440
1,594,77470
1,595,77467
1,596,77436
1,597,77484
1,598,77353
1,599,77498
1,600,77394
1,601,77532
1,602,77572
1,603,77466
1,604,77382
1,605,77409
1,606,77413
1,607,77470
1,608,77410
1,609,77385
1,610,77364
1,611,77413
1,612,77498
1,613,77423
1,614,77428
1,615,77427
1,616,77334
1,617,77484
1,618,77465
1,619,77326
1,620,77414
1,621,77536
1,622,77423
1,623,77493
1,624,77504
1,625,77409
1,626,77521
1,627,77620
1,628,77377
1,629,77508
1,630,77417
1,631,77530
1,632,77350
1,633,77376
1,634,77446
1,635,77431
1,636,77396
1,637,77411
1,638,77377
1,639,77542
1,640,77447
1,641,77445
1,642,77325
1,643,77375
1,644,77431
1,645,77353
1,646,77403
1,647,77540
1,648,77528
1,649,77540
1,650,77257
1,651,77435
1,652,77383
1,653,77458
1,654,77417
1,655,77570
1,656,77455
1,657,77283
1,658,77362
1,659,77444
1,660,77418
1,661,77388
1,662,77330
1,663,77525
1,664,77450
1,665,77422
1,666,77494
1,667,77365
1,668,77498
1,669,77409
1,670,77433
1,671,77578
1,672,77494
1,673,77513
1,674,77468
1,675,77423
1,676,77502
1,677,77438
1,678,77465
1,679,77404
1,680,77511
1,681,77437
1,682,77475
1,683,77324
1,684,77502
1,685,77368
1,686,77323
1,687,77508
1,688,77445
1,689,77500
1,690,77403
1,691,77334
1,692,77471
1,693,77448
1,694,77392
1,695,77551
1,696,77493
1,697,77551
1,698,77372
1,699,77355
1,700,77378
1,701,77375
1,702,77509
1,703,77442
1,704,77522
1,705,77422
1,706,77428
1,707,77533
1,708,77415
1,709,77517
1,710,77445
1,711,77437
1,712,77446
1,713,77385
1,714,77325
1,715,77370
1,716,77376
1,717,77495
1,718,77460
1,719,77549
1,720,77500
1,721,77454
1,722,77550
1,723,77508
1,724,77318
1,725,77472
1,726,77447
1,727,77301
1,728,77460
1,729,77508
1,730,77400
1,731,77463
1,732,77563
1,733,77486
1,734,77407
1,735,77407
1,736,77327
1,737,77398
1,738,77465
1,739,77546
1,740,77525
1,741,77487
1,742,77474
1,743,77358
1,744,77481
1,745,77363
1,746,77421
1,747,77411
1,748,77405
1,749,77467
1,750,77479
1,751,77528
1,752,77433
1,753,77445
1,754,77463
1,755,77480
1,756,77489
1,757,77417
1,758,77595
1,759,77316
1,760,77440
1,761,77364
1,762,77298
1,763,77453
1,764,77481
1,765,77449
1,766,77403
1,767,77475
1,768,77410
1,769,77455
1,770,77411
1,771,77492
1,772,77445
1,773,77399
1,774,77410
1,775,77477
1,776,77517
1,777,77435
1,778,77379
1,779,77451
1,780,77348
1,781,77347
1,782,77427
1,783,77501
1,784,77430
1,785,77552
1,786,77469
1,787,77348
1,788,77527
1,789,77511
1,790,77501
1,791,77489
1,792,77493
1,793,77473
1,794,77507
1,795,77442
1,796,77553
1,797,77507
1,798,77304
1,799,77559
1,800,77385
1,801,77382
1,802,77386
1,803,77549
1,804,77514
1,805,77533
1,806,77422
1,807,77481
1,808,77578
1,809,77458
1,810,77457
1,811,77419
1,812,77298
1,813,77428
1,814,77407
1,815,77318
1,816,77447
1,817,77442
1,818,77418
1,819,77356
1,820,77438
1,821,77469
1,822,77509
1,823,77449
1,824,77549
1,825,77444
1,826,77506
1,827,77511
1,828,77345
1,829,77435
1,830,77440
1,831,77439
1,832,77507
1,833,77465
1,834,77530
1,835,77452
1,836,77476
1,837,77272
1,838,77409
1,839,77349
1,840,77435
1,841,77615
1,842,77360
1,843,77356
1,844,77485
1,845,77447
1,846,77427
1,847,77420
1,848,77475
1,849,77348
1,850,77365
1,851,77419
1,852,77470
1,853,77476
1,854,77491
1,855,77480
1,856,77460
1,857,77350
1,858,77391
1,859,77405
1,860,77352
1,861,77588
1,862,77351
1,863,77529
1,864,77459
1,865,77410
1,866,77399
1,867,77346
1,868,77434
1,869,77512
1,870,77519
1,871,77465
1,872,77497
1,873,77356
1,874,77522
1,875,77397
1,876,77336
1,877,77396
1,878,77500
1,879,77562
1,880,77378
1,881,77474
1,882,77609
1,883,77542
1,884,77512
1,885,77494
1,886,77379
1,887,77419
1,888,77474
1,889,77500
1,890,77434
1,891,77441
1,892,77506
1,893,77542
1,894,77455
1,895,77541
1,896,77593
1,897,77484
1,898,77502
1,899,77585
1,900,77504
1,901,77549
1,902,77465
1,903,77435
1,904,77489
1,905,77476
1,906,77526
1,907,77449
1,908,77431
1,909,77551
1,910,77472
1,911,77386
1,912,77351
1,913,77475
1,914,77470
1,915,77343
1,916,77390
1,917,77388
1,918,77528
1,919,77418
1,920,77508
1,921,77401
1,922,77464
1,923,77479
1,924,77415
1,925,77349
1,926,77377
1,927,77389
1,928,77496
1,929,77424
1,930,77555
1,931,77430
1,932,77524
1,933,77403
1,934,77466
1,935,77500
1,936,77433
1,937,77237
1,938,77410
1,939,77523
1,940,77423
1,941,77478
1,942,77552
1,943,77468
1,944,77474
1,945,77522
1,946,77496
1,947,77512
1,948,77421
1,949,77337
1,950,77322
1,951,77476
1,952,77513
1,953,77579
1,954,77444
1,955,77637
1,956,77472
1,957,77468
1,958,77352
1,959,77516
1,960,77479
1,961,77497
1,962,77659
1,963,77503
1,964,77541
1,965,77534
1,966,77449
1,967,77433
1,968,77471
1,969,77470
1,970,77293
1,971,77453
1,972,77505
1,973,77571
1,974,77396
1,975,77567
1,976,77405
1,977,77450
1,978,77514
1,979,77491
1,980,77445
1,981,77467
1,982,77497
1,983,77482
1,984,77350
1,985,77444
1,986,77261
1,987,77394
1,988,77419
1,989,77534
1,990,77524
1,991,77371
1,992,77385
1,993,77476
1,994,77580
1,995,77518
1,996,77401
1,997,77497
1,998,77477
1,999,77415
1,1000,77564
1,1001,77446
1,1002,77429
1,1003,77496
1,1004,77495
1,1005,77484
1,1006,77498
1,1007,77362
1,1008,77519
1,1009,77596
1,1010,77443
1,1011,77478
1,1012,77396
1,1013,77520
1,1014,77571
1,1015,77513
1,1016,77566
1,1017,77604
1,1018,77381
1,1019,77400
1,1020,77384
1,1021,77413
1,1022,77465
1,1023,77525
1,1024,77468
1,1025,77465
1,1026,77536
1,1027,77431
1,1028,77516
1,1029,77502
1,1030,77569
1,1031,77419
1,1032,77475
1,1033,77513
1,1034,77527
1,1035,77584
1,1036,77433
1,1037,77406
1,1038,77473
1,1039,77445
1,1040,77414
1,1041,77440
1,1042,77358
1,1043,77476
1,1044,77359
1,1045,77415
1,1046,77394
1,1047,77468
1,1048,77494
1,1049,77410
1,1050,77381
1,1051,77509
1,1052,77502
1,1053,77458
1,1054,77434
1,1055,77526
1,1056,77432
1,1057,77317
1,1058,77558
1,1059,77506
1,1060,77401
1,1061,77475
1,1062,77505
1,1063,77406
1,1064,77479
1,1065,77484
1,1066,77554
1,1067,77488
1,1068,77549
1,1069,77454
1,1070,77440
1,1071,77507
1,1072,77407
1,1073,77545
1,1074,77559
1,1075,77500
1,1076,77561
1,1077,77516
1,1078,77509
1,1079,77496
1,1080,77357
1,1081,77452
1,1082,77507
1,1083,77534
1,1084,77475
1,1085,77455
1,1086,77434
1,1087,77493
1,1088,77384
1,1089,77498
1,1090,77497
1,1091,77365
1,1092,77585
1,1093,77452
1,1094,77410
1,1095,77374
1,1096,77564
1,1097,77328
1,1098,77509
1,1099,77392
1,1100,77562
1,1101,77576
1,1102,77490
1,1103,77363
1,1104,77534
1,1105,77509
1,1106,77455
1,1107,77369
1,1108,77448
1,1109,77422
1,1110,77580
1,1111,77521
1,1112,77460
1,1113,77457
1,1114,77499
1,1115,77426
1,1116,77442
1,1117,77454
1,1118,77431
1,1119,77578
1,1120,77570
1,1121,77483
1,1122,77456
1,1123,77608
1,1124,77493
1,1125,77426
1,1126,77443
1,1127,77463
1,1128,77544
1,1129,77461
1,1130,77446
1,1131,77473
1,1132,77605
1,1133,77598
1,1134,77597
1,1135,77623
1,1136,77537
1,1137,77434
1,1138,77498
1,1139,77433
1,1140,77568
1,1141,77542
1,1142,77415
1,1143,77623
1,1144,77604
1,1145,77522
1,1146,77633
1,1147,77632
1,1148,77523
1,1149,77535
1,1150,77603
1,1151,77619
1,1152,77514
1,1153,77488
1,1154,77577
1,1155,77650
1,1156,77489
1,1157,77464
1,1158,77544
1,1159,77492
1,1160,77489
1,1161,77507
1,1162,77575
1,1163,77600
1,1164,77433
1,1165,77550
1,1166,77492
1,1167,77513
1,1168,77500
1,1169,77524
1,1170,77563
1,1171,77500
1,1172,77584
1,1173,77395
1,1174,77639
1,1175,77523
1,1176,77541
1,1177,77449
1,1178,77601
1,1179,77588
1,1180,77417
1,1181,77598
1,1182,77553
1,1183,77581
1,1184,77460
1,1185,77622
1,1186,77512
1,1187,77618
1,1188,77602
1,1189,77582
1,1190,77501
1,1191,77516
1,1192,77542
1,1193,77586
1,1194,77426
1,1195,77481
1,1196,77438
1,1197,77575
1,1198,77511
1,1199,77399
1,1200,77508
1,1201,77570
1,1202,77519
1,1203,77459
1,1204,77542
1,1205,77606
1,1206,77593
1,1207,77518
1,1208,77455
1,1209,77515
1,1210,77427
1,1211,77617
1,1212,77513
1,1213,77633
1,1214,77616
1,1215,77666
1,1216,77479
1,1217,77371
1,1218,77592
1,1219,77577
1,1220,77493
1,1221,77411
1,1222,77441
1,1223,77583
1,1224,77738
1,1225,77577
1,1226,77541
1,1227,77604
1,1228,77503
1,1229,77531
1,1230,77478
1,1231,77472
1,1232,77492
1,1233,77507
1,1234,77524
1,1235,77724
1,1236,77533
1,1237,77606
1,1238,77592
1,1239,77564
1,1240,77615
1,1241,77611
1,1242,77682
1,1243,77591
1,1244,77660
1,1245,77470
1,1246,77504
1,1247,77641
1,1248,77599
1,1249,77542
1,1250,77597
1,1251,77671
1,1252,77656
1,1253,77630
1,1254,77605
1,1255,77644
1,1256,77734
1,1257,77652
1,1258,77727
1,1259,77647
1,1260,77625
1,1261,77727
1,1262,77698
1,1263,77818
1,1264,77673
1,1265,77668
1,1266,77723
1,1267,77745
1,1268,77761
1,1269,77660
1,1270,77572
1,1271,77673
1,1272,77718
1,1273,77662
1,1274,77772
1,1275,77545
1,1276,77670
1,1277,77638
1,1278,77669
1,1279,77675
1,1280,77748
1,1281,77644
1,1282,77589
1,1283,77669
1,1284,77542
1,1285,77651
1,1286,77672
1,1287,77567
1,1288,77703
1,1289,77633
1,1290,77513
1,1291,77758
1,1292,77681
1,1293,77694
1,1294,77524
1,1295,77570
1,1296,77565
1,1297,77573
1,1298,77571
1,1299,77421
1,1300,77637
1,1301,77588
1,1302,77628
1,1303,77540
1,1304,77611
1,1305,77379
1,1306,77511
1,1307,77568
1,1308,77500
1,1309,77367
1,1310,77647
1,1311,77450
1,1312,77489
1,1313,77372
1,1314,77496
1,1315,77420
1,1316,77604
1,1317,77624
1,1318,77520
1,1319,77514
1,1320,77616
1,1321,77505
1,1322,77448
1,1323,77619
1,1324,77481
1,1325,77422
1,1326,77475
1,1327,77500
1,1328,77285
1,1329,77117
1,1330,77335
1,1331,77312
1,1332,77190
1,1333,77309
1,1334,77148
1,1335,77149
1,1336,76960
1,1337,76980
1,1338,76753
1,1339,75653
1,1340,117230
