1,1,122880
1,2,122960
1,3,123403
1,4,124092
1,5,124377
1,6,124325
1,7,124776
1,8,124922
1,9,125093
1,10,125272
1,11,125739
1,12,126519
1,13,126497
1,14,126738
1,15,126938
1,16,127090
1,17,128041
1,18,128046
1,19,128277
1,20,128782
1,21,128555
1,22,129232
1,23,129293
1,24,129521
1,25,130455
1,26,130500
1,27,129797
1,28,130845
1,29,130606
1,30,131171
1,31,131602
1,32,132165
1,33,131850
1,34,132043
1,35,132285
1,36,133070
1,37,132989
1,38,133158
1,39,133186
1,40,133216
1,41,133551
1,42,133829
1,43,133828
1,44,134363
1,45,134374
1,46,134545
1,47,134555
1,48,134588
1,49,135202
1,50,135839
1,51,135576
1,52,135378
1,53,135888
1,54,135757
1,55,136300
1,56,136480
1,57,136203
1,58,136288
1,59,136823
1,60,137168
1,61,137323
1,62,136803
1,63,136878
1,64,137228
1,65,136822
1,66,136066
1,67,135889
1,68,135510
1,69,135020
1,70,133747
1,71,132108
1,72,130826
1,73,128907
1,74,126739
1,75,125957
1,76,124369
1,77,122101
1,78,120170
1,79,118602
1,80,116557
1,81,115278
1,82,113283
1,83,111626
1,84,109881
1,85,107693
1,86,106153
1,87,104827
1,88,102943
1,89,100960
1,90,99701
1,91,97807
1,92,96235
1,93,95050
1,94,93930
1,95,92621
1,96,91365
1,97,90270
1,98,89627
1,99,88593
1,100,87565
1,101,86668
1,102,85968
1,103,85087
1,104,84474
1,105,84000
1,106,83691
1,107,83161
1,108,82794
1,109,82421
1,110,82123
1,111,81888
1,112,81640
1,113,81555
1,114,81417
1,115,81272
1,116,81192
1,117,81032
1,118,80776
1,119,80903
1,120,80769
1,121,80888
1,122,80771
1,123,80687
1,124,80878
1,125,80951
1,126,80918
1,127,80668
1,128,80741
1,129,80744
1,130,80863
1,131,80870
1,132,80895
1,133,80880
1,134,80823
1,135,80826
1,136,80868
1,137,80883
1,138,80841
1,139,80689
1,140,80894
1,141,80805
1,142,80855
1,143,80727
1,144,81008
1,145,80881
1,146,80854
1,147,81061
1,148,81043
1,149,81057
1,150,80968
1,151,81082
1,152,80902
1,153,81078
1,154,81251
1,155,80979
1,156,81054
1,157,81032
1,158,81224
1,159,81256
1,160,81171
1,161,81166
1,162,81094
1,163,81248
1,164,81277
1,165,81212
1,166,81135
1,167,81233
1,168,81165
1,169,81295
1,170,81324
1,171,81244
1,172,81210
1,173,81243
1,174,81330
1,175,81262
1,176,81522
1,177,81456
1,178,81395
1,179,81522
1,180,81607
1,181,81853
1,182,81876
1,183,81907
1,184,82044
1,185,82374
1,186,82316
1,187,82770
1,188,83272
1,189,83552
1,190,84114
1,191,84785
1,192,85325
1,193,85831
1,194,86679
1,195,87422
1,196,88163
1,197,89268
1,198,90813
1,199,91838
1,200,93306
1,201,94627
1,202,95833
1,203,97630
1,204,99583
1,205,101293
1,206,103656
1,207,105922
1,208,108071
1,209,110414
1,210,112395
1,211,114061
1,212,116480
1,213,119087
1,214,121490
1,215,124061
1,216,126442
1,217,128793
1,218,130760
1,219,133103
1,220,135039
1,221,136830
1,222,138966
1,223,140996
1,224,143352
1,225,145357
1,226,146563
1,227,148283
1,228,150601
1,229,152030
1,230,153681
1,231,154724
1,232,156657
1,233,157754
1,234,159333
1,235,161045
1,236,162619
1,237,163872
1,238,165079
1,239,166309
1,240,167736
1,241,169709
1,242,170181
1,243,171864
1,244,172602
1,245,173616
1,246,174941
1,247,176824
1,248,177884
1,249,179416
1,250,180335
1,251,181343
1,252,182286
1,253,183347
1,254,184748
1,255,184689
1,256,185663
1,257,186880
1,258,187890
1,259,188772
1,260,190021
1,261,190430
1,262,191586
1,263,192400
1,264,193381
1,265,193997
1,266,194172
1,267,195368
1,268,196762
1,269,196540
1,270,197479
1,271,198740
1,272,199626
1,273,200154
1,274,200027
1,275,200637
1,276,200948
1,277,201799
1,278,202549
1,279,203247
1,280,204223
1,281,204184
1,282,205140
1,283,204971
1,284,205878
1,285,206657
1,286,206753
1,287,206884
1,288,207280
1,289,208078
1,290,208668
1,291,209098
1,292,209929
1,293,209411
1,294,209950
1,295,210746
1,296,211487
1,297,211628
1,298,211659
1,299,211339
1,300,212448
1,301,212936
1,302,213051
1,303,212784
1,304,214088
1,305,213994
1,306,214689
1,307,214868
1,308,214853
1,309,215368
1,310,216131
1,311,215512
1,312,216380
1,313,216718
1,314,216843
1,315,216914
1,316,217423
1,317,218344
1,318,218433
1,319,218533
1,320,219141
1,321,219057
1,322,219931
1,323,220135
1,324,220478
1,325,219957
1,326,221306
1,327,220533
1,328,222177
1,329,222263
1,330,222423
1,331,222551
1,332,222834
1,333,222801
1,334,223341
1,335,223732
1,336,223549
1,337,223596
1,338,223834
1,339,224143
1,340,225184
1,341,224817
1,342,226033
1,343,225967
1,344,226178
1,345,226518
1,346,226908
1,347,226855
1,348,226892
1,349,227793
1,350,228055
1,351,228558
1,352,228364
1,353,228453
1,354,229798
1,355,229388
1,356,230381
1,357,229674
1,358,230305
1,359,230118
1,360,230669
1,361,230656
1,362,231418
1,363,231796
1,364,232106
1,365,232108
1,366,232080
1,367,232875
1,368,233210
1,369,233945
1,370,234019
1,371,233548
1,372,234649
1,373,234693
1,374,234978
1,375,234477
1,376,235771
1,377,236169
1,378,236349
1,379,236954
1,380,237652
1,381,237235
1,382,237141
1,383,237313
1,384,238309
1,385,238567
1,386,238544
1,387,238710
1,388,239092
1,389,239213
1,390,239688
1,391,240014
1,392,240110
1,393,240508
1,394,240875
1,395,241963
1,396,241502
1,397,241920
1,398,241597
1,399,242207
1,400,242415
1,401,243164
1,402,243533
1,403,244145
1,404,244162
1,405,244590
1,406,244455
1,407,245017
1,408,244849
1,409,245554
1,410,245826
1,411,246394
1,412,245991
1,413,246301
1,414,247075
1,415,247033
1,416,248150
1,417,247387
1,418,248168
1,419,248455
1,420,248646
1,421,249232
1,422,249347
1,423,249644
1,424,250567
1,425,250276
1,426,251114
1,427,250482
1,428,251625
1,429,251985
1,430,251556
1,431,252950
1,432,253168
1,433,252785
1,434,252765
1,435,253435
1,436,253698
1,437,254237
1,438,254214
1,439,254665
1,440,255483
1,441,255194
1,442,256015
1,443,256524
1,444,256144
1,445,256393
1,446,256722
1,447,256809
1,448,257197
1,449,257923
1,450,257596
1,451,258656
1,452,258713
1,453,259132
1,454,259164
1,455,259896
1,456,259199
1,457,260428
1,458,260641
1,459,261400
1,460,261785
1,461,260853
1,462,261299
1,463,261729
1,464,262004
1,465,263237
1,466,262137
1,467,262686
1,468,263562
1,469,263877
1,470,264308
1,471,264677
1,472,264226
1,473,264523
1,474,265321
1,475,266476
1,476,265548
1,477,266679
1,478,267105
1,479,266468
1,480,267523
1,481,267133
1,482,268243
1,483,268488
1,484,268793
1,485,269213
1,486,268947
1,487,269017
1,488,269222
1,489,269741
1,490,270154
1,491,270463
1,492,271077
1,493,270645
1,494,271142
1,495,271970
1,496,271446
1,497,273265
1,498,272883
1,499,273531
1,500,273900
1,501,273557
1,502,273912
1,503,274269
1,504,274353
1,505,275689
1,506,275615
1,507,275208
1,508,276055
1,509,276185
1,510,276329
1,511,277271
1,512,276928
1,513,277936
1,514,277383
1,515,276998
1,516,277944
1,517,278179
1,518,278576
1,519,279705
1,520,279004
1,521,280376
1,522,279797
1,523,280221
1,524,279948
1,525,280359
1,526,281703
1,527,281091
1,528,281068
1,529,282740
1,530,282497
1,531,282461
1,532,282827
1,533,282940
1,534,283974
1,535,284498
1,536,284733
1,537,285441
1,538,284206
1,539,284674
1,540,285089
1,541,285650
1,542,286166
1,543,285852
1,544,286673
1,545,286373
1,546,286040
1,547,287192
1,548,287626
1,549,288896
1,550,288200
1,551,287971
1,552,288724
1,553,288821
1,554,289856
1,555,289905
1,556,290108
1,557,290620
1,558,291105
1,559,291048
1,560,291798
1,561,291436
1,562,293117
1,563,292529
1,564,292267
1,565,292777
1,566,293913
1,567,293876
1,568,293082
1,569,293955
1,570,294480
1,571,295190
1,572,295210
1,573,295452
1,574,296127
1,575,296177
1,576,296750
1,577,296696
1,578,297362
1,579,297631
1,580,297829
1,581,298103
1,582,298077
1,583,298957
1,584,298778
1,585,299421
1,586,299455
1,587,299912
1,588,300121
1,589,300625
1,590,300296
1,591,301071
1,592,301454
1,593,301397
1,594,301220
1,595,302359
1,596,302533
1,597,301506
1,598,302168
1,599,303787
1,600,303737
1,601,304211
1,602,304093
1,603,304520
1,604,304834
1,605,304377
1,606,305785
1,607,305979
1,608,306016
1,609,305679
1,610,306346
1,611,306671
1,612,306905
1,613,307392
1,614,307127
1,615,307427
1,616,307576
1,617,307961
1,618,308915
1,619,309122
1,620,309067
1,621,309553
1,622,310467
1,623,309903
1,624,309772
1,625,310260
1,626,310718
1,627,311370
1,628,311527
1,629,311976
1,630,311699
1,631,313065
1,632,312719
1,633,312675
1,634,313995
1,635,313284
1,636,313773
1,637,314585
1,638,315164
1,639,314300
1,640,314827
1,641,315586
1,642,314904
1,643,315959
1,644,316280
1,645,315861
1,646,317141
1,647,317884
1,648,317036
1,649,316221
1,650,318532
1,651,317319
1,652,317673
1,653,319086
1,654,319802
1,655,318449
1,656,320154
1,657,319817
1,658,320255
1,659,319623
1,660,321375
1,661,320645
1,662,320486
1,663,321763
1,664,322166
1,665,321949
1,666,321564
1,667,322050
1,668,322561
1,669,322396
1,670,322552
1,671,323278
1,672,324284
1,673,324063
1,674,324477
1,675,324344
1,676,325548
1,677,325238
1,678,325192
1,679,325672
1,680,325982
1,681,326491
1,682,326456
1,683,327471
1,684,327301
1,685,326810
1,686,326121
1,687,328016
1,688,327856
1,689,328584
1,690,328989
1,691,328264
1,692,328663
1,693,329442
1,694,329947
1,695,329551
1,696,330911
1,697,330596
1,698,331548
1,699,331419
1,700,330971
1,701,331674
1,702,331499
1,703,332832
1,704,332138
1,705,332258
1,706,333127
1,707,333082
1,708,332933
1,709,333356
1,710,333788
1,711,335088
1,712,333790
1,713,334722
1,714,334227
1,715,335878
1,716,335492
1,717,335534
1,718,335346
1,719,335802
1,720,334472
1,721,335597
1,722,336441
1,723,337167
1,724,336622
1,725,338180
1,726,337148
1,727,337642
1,728,337993
1,729,338023
1,730,337658
1,731,337942
1,732,339346
1,733,339037
1,734,339559
1,735,338894
1,736,338968
1,737,340378
1,738,340586
1,739,339520
1,740,340134
1,741,340561
1,742,341182
1,743,341395
1,744,341211
1,745,341616
1,746,343143
1,747,341870
1,748,342364
1,749,342260
1,750,341968
1,751,342775
1,752,343035
1,753,343674
1,754,344573
1,755,344165
1,756,345293
1,757,345078
1,758,344665
1,759,344549
1,760,345257
1,761,346023
1,762,345644
1,763,346315
1,764,346419
1,765,346465
1,766,345726
1,767,346355
1,768,346334
1,769,346913
1,770,347835
1,771,347203
1,772,346950
1,773,347744
1,774,348466
1,775,348089
1,776,347977
1,777,348202
1,778,349064
1,779,349755
1,780,349164
1,781,349687
1,782,351425
1,783,349822
1,784,349901
1,785,350696
1,786,350387
1,787,351016
1,788,351158
1,789,351183
1,790,351209
1,791,351860
1,792,351521
1,793,352223
1,794,352401
1,795,352273
1,796,351350
1,797,352151
1,798,353368
1,799,353081
1,800,353288
1,801,353454
1,802,353053
1,803,353646
1,804,353713
1,805,354083
1,806,355490
1,807,355333
1,808,355564
1,809,356159
1,810,355648
1,811,355730
1,812,356031
1,813,356147
1,814,355267
1,815,356138
1,816,357168
1,817,357135
1,818,357720
1,819,358441
1,820,357535
1,821,356885
1,822,357879
1,823,358321
1,824,358883
1,825,357524
1,826,357868
1,827,358469
1,828,358959
1,829,359085
1,830,358749
1,831,358897
1,832,358703
1,833,359542
1,834,360161
1,835,359909
1,836,361179
1,837,359335
1,838,360829
1,839,360816
1,840,361018
1,841,361104
1,842,360570
1,843,361752
1,844,361770
1,845,361717
1,846,362100
1,847,360896
1,848,362495
1,849,362262
1,850,362540
1,851,362310
1,852,362451
1,853,363065
1,854,362850
1,855,362405
1,856,363193
1,857,364006
1,858,364067
1,859,363193
1,860,364818
1,861,364568
1,862,363903
1,863,364302
1,864,364585
1,865,365165
1,866,364569
1,867,365373
1,868,365236
1,869,365633
1,870,365537
1,871,365305
1,872,365447
1,873,365619
1,874,365077
1,875,365704
1,876,365231
1,877,366376
1,878,366737
1,879,366008
1,880,365631
1,881,366582
1,882,367912
1,883,366528
1,884,366442
1,885,366883
1,886,367197
1,887,367237
1,888,368379
1,889,367582
1,890,368106
1,891,369187
1,892,368408
1,893,367687
1,894,368516
1,895,368223
1,896,369004
1,897,367884
1,898,367814
1,899,368381
1,900,368357
1,901,368273
1,902,368144
1,903,368238
1,904,368677
1,905,369082
1,906,369346
1,907,368961
1,908,369466
1,909,368791
1,910,369490
1,911,369113
1,912,369691
1,913,369840
1,914,369938
1,915,370123
1,916,370756
1,917,370840
1,918,370208
1,919,370090
1,920,370958
1,921,370758
1,922,370657
1,923,370804
1,924,370157
1,925,370589
1,926,370112
1,927,371473
1,928,370640
1,929,370642
1,930,370897
1,931,370489
1,932,371105
1,933,371628
1,934,371647
1,935,371582
1,936,371833
1,937,371259
1,938,371986
1,939,371954
1,940,371126
1,941,372715
1,942,371914
1,943,372495
1,944,372530
1,945,372248
1,946,371597
1,947,372844
1,948,372351
1,949,371746
1,950,372077
1,951,372339
1,952,372649
1,953,370807
1,954,372016
1,955,372264
1,956,372804
1,957,372025
1,958,371798
1,959,372119
1,960,373449
1,961,372685
1,962,372465
1,963,371908
1,964,372845
1,965,372615
1,966,372160
1,967,373486
1,968,372408
1,969,373555
1,970,373045
1,971,372091
1,972,373218
1,973,372721
1,974,372818
1,975,372199
1,976,372829
1,977,373339
1,978,372617
1,979,373406
1,980,373568
1,981,373204
1,982,372540
1,983,373124
1,984,372274
1,985,372844
1,986,372955
1,987,372782
1,988,373313
1,989,372378
1,990,372366
1,991,374545
1,992,373519
1,993,374051
1,994,372227
1,995,372808
1,996,373876
1,997,372947
1,998,373073
1,999,373722
1,1000,373043
1,1001,372953
1,1002,372807
1,1003,373120
1,1004,373003
1,1005,373817
1,1006,373445
1,1007,372734
1,1008,373250
1,1009,373122
1,1010,373031
1,1011,372891
1,1012,373107
1,1013,373106
1,1014,373569
1,1015,373774
1,1016,372442
1,1017,372200
1,1018,372367
1,1019,372864
1,1020,372683
1,1021,372552
1,1022,373582
1,1023,372735
1,1024,372810
1,1025,373083
1,1026,372514
1,1027,372947
1,1028,372449
1,1029,372695
1,1030,371479
1,1031,372045
1,1032,372252
1,1033,372645
1,1034,372616
1,1035,371908
1,1036,371130
1,1037,373144
1,1038,372455
1,1039,372479
1,1040,371693
1,1041,371427
1,1042,371185
1,1043,371936
1,1044,371616
1,1045,371620
1,1046,371829
1,1047,372224
1,1048,372207
1,1049,371875
1,1050,372248
1,1051,370810
1,1052,370204
1,1053,369580
1,1054,370576
1,1055,370414
1,1056,370790
1,1057,371461
1,1058,370240
1,1059,370745
1,1060,371225
1,1061,370098
1,1062,370653
1,1063,369864
1,1064,370926
1,1065,370015
1,1066,370772
1,1067,370047
1,1068,370898
1,1069,369167
1,1070,369253
1,1071,369682
1,1072,370103
1,1073,369886
1,1074,369345
1,1075,369417
1,1076,369298
1,1077,369144
1,1078,368901
1,1079,368208
1,1080,368597
1,1081,367688
1,1082,369046
1,1083,367737
1,1084,368929
1,1085,367961
1,1086,367812
1,1087,367996
1,1088,367929
1,1089,367789
1,1090,368496
1,1091,367186
1,1092,367433
1,1093,368445
1,1094,367406
1,1095,366149
1,1096,367340
1,1097,367173
1,1098,367014
1,1099,367606
1,1100,365251
1,1101,366024
1,1102,366528
1,1103,367011
1,1104,365581
1,1105,366693
1,1106,366092
1,1107,365786
1,1108,364662
1,1109,364875
1,1110,364880
1,1111,365806
1,1112,364428
1,1113,365242
1,1114,364186
1,1115,364018
1,1116,364027
1,1117,363691
1,1118,364052
1,1119,363590
1,1120,364054
1,1121,363864
1,1122,363796
1,1123,364058
1,1124,364040
1,1125,363380
1,1126,362644
1,1127,364057
1,1128,362535
1,1129,363336
1,1130,362365
1,1131,362322
1,1132,362719
1,1133,362233
1,1134,361993
1,1135,362033
1,1136,361272
1,1137,360825
1,1138,361626
1,1139,360944
1,1140,361104
1,1141,361394
1,1142,360662
1,1143,360132
1,1144,361298
1,1145,359957
1,1146,360460
1,1147,360733
1,1148,360011
1,1149,360043
1,1150,359433
1,1151,359146
1,1152,357301
1,1153,358820
1,1154,358380
1,1155,359187
1,1156,358095
1,1157,358306
1,1158,358487
1,1159,358124
1,1160,357740
1,1161,357289
1,1162,356426
1,1163,356382
1,1164,356904
1,1165,357143
1,1166,356807
1,1167,356735
1,1168,356443
1,1169,356308
1,1170,356375
1,1171,356256
1,1172,355838
1,1173,355223
1,1174,355749
1,1175,354845
1,1176,355150
1,1177,354470
1,1178,354603
1,1179,354604
1,1180,354819
1,1181,354527
1,1182,352972
1,1183,353344
1,1184,353112
1,1185,353413
1,1186,352876
1,1187,352716
1,1188,352504
1,1189,352031
1,1190,351405
1,1191,351419
1,1192,351309
1,1193,351014
1,1194,350968
1,1195,351982
1,1196,351404
1,1197,351501
1,1198,350529
1,1199,350062
1,1200,349227
1,1201,350505
1,1202,350327
1,1203,349832
1,1204,349720
1,1205,348846
1,1206,349281
1,1207,349555
1,1208,349722
1,1209,348377
1,1210,348933
1,1211,348107
1,1212,347691
1,1213,347400
1,1214,346990
1,1215,347309
1,1216,346230
1,1217,347328
1,1218,346854
1,1219,346586
1,1220,346217
1,1221,346032
1,1222,345015
1,1223,344878
1,1224,344984
1,1225,344824
1,1226,344057
1,1227,343924
1,1228,342955
1,1229,342674
1,1230,342560
1,1231,343096
1,1232,342501
1,1233,342250
1,1234,340793
1,1235,341324
1,1236,341409
1,1237,340705
1,1238,338607
1,1239,338335
1,1240,337888
1,1241,338431
1,1242,336825
1,1243,336154
1,1244,336207
1,1245,335097
1,1246,335277
1,1247,334446
1,1248,334526
1,1249,333582
1,1250,333080
1,1251,332082
1,1252,331092
1,1253,330484
1,1254,329376
1,1255,329295
1,1256,327236
1,1257,327673
1,1258,326904
1,1259,325273
1,1260,325143
1,1261,324915
1,1262,324147
1,1263,323950
1,1264,321318
1,1265,321236
1,1266,320377
1,1267,320069
1,1268,319651
1,1269,318106
1,1270,317186
1,1271,316383
1,1272,315595
1,1273,314159
1,1274,312868
1,1275,311161
1,1276,310738
1,1277,309675
1,1278,307852
1,1279,306193
1,1280,305569
1,1281,303299
1,1282,302473
1,1283,300903
1,1284,300536
1,1285,298916
1,1286,297410
1,1287,295552
1,1288,294523
1,1289,292487
1,1290,292220
1,1291,289937
1,1292,288337
1,1293,287009
1,1294,285191
1,1295,284709
1,1296,282795
1,1297,281178
1,1298,280127
1,1299,278477
1,1300,276441
1,1301,276257
1,1302,273380
1,1303,271976
1,1304,272198
1,1305,269403
1,1306,267746
1,1307,266123
1,1308,264753
1,1309,262790
1,1310,261894
1,1311,260036
1,1312,259193
1,1313,257481
1,1314,256285
1,1315,254654
1,1316,252508
1,1317,251186
1,1318,249153
1,1319,247701
1,1320,247108
1,1321,244976
1,1322,242631
1,1323,241776
1,1324,239036
1,1325,238235
1,1326,237009
1,1327,235867
1,1328,234102
1,1329,232270
1,1330,230220
1,1331,228827
1,1332,227625
1,1333,226081
1,1334,224701
1,1335,222818
1,1336,220871
1,1337,219744
1,1338,218211
1,1339,215724
1,1340,250414
