1,1,77611
1,2,77594
1,3,77600
1,4,77571
1,5,77470
1,6,77581
1,7,77518
1,8,77611
1,9,77515
1,10,77641
1,11,77655
1,12,77585
1,13,77464
1,14,77592
1,15,77628
1,16,77691
1,17,77638
1,18,77651
1,19,77626
1,20,77655
1,21,77720
1,22,77629
1,23,77658
1,24,77564
1,25,77622
1,26,77605
1,27,77604
1,28,77692
1,29,77660
1,30,77717
1,31,77719
1,32,77616
1,33,77688
1,34,77624
1,35,77701
1,36,77700
1,37,77636
1,38,77676
1,39,77588
1,40,77619
1,41,77776
1,42,77632
1,43,77671
1,44,77636
1,45,77636
1,46,77708
1,47,77851
1,48,77631
1,49,77677
1,50,77547
1,51,77672
1,52,77633
1,53,77693
1,54,77647
1,55,77730
1,56,77672
1,57,77697
1,58,77559
1,59,77558
1,60,77653
1,61,77702
1,62,77544
1,63,77653
1,64,77678
1,65,77692
1,66,77703
1,67,77629
1,68,77530
1,69,77635
1,70,77749
1,71,77607
1,72,77466
1,73,77684
1,74,77670
1,75,77564
1,76,77470
1,77,77649
1,78,77599
1,79,77565
1,80,77550
1,81,77532
1,82,77610
1,83,77548
1,84,77376
1,85,77557
1,86,77567
1,87,77477
1,88,77505
1,89,77337
1,90,77427
1,91,77422
1,92,77454
1,93,77408
1,94,77476
1,95,77498
1,96,77426
1,97,77527
1,98,77379
1,99,77402
1,100,77362
1,101,77405
1,102,77342
1,103,77401
1,104,77550
1,105,77435
1,106,77438
1,107,77249
1,108,77393
1,109,77327
1,110,77405
1,111,77470
1,112,77284
1,113,77349
1,114,77472
1,115,77426
1,116,77376
1,117,77459
1,118,77404
1,119,77375
1,120,77395
1,121,77307
1,122,77351
1,123,77391
1,124,77298
1,125,77363
1,126,77525
1,127,77387
1,128,77356
1,129,77479
1,130,77447
1,131,77205
1,132,77372
1,133,77493
1,134,77342
1,135,77394
1,136,77313
1,137,77401
1,138,77316
1,139,77412
1,140,77287
1,141,77356
1,142,77466
1,143,77389
1,144,77420
1,145,77386
1,146,77216
1,147,77310
1,148,77505
1,149,77343
1,150,77379
1,151,77427
1,152,77326
1,153,77336
1,154,77297
1,155,77392
1,156,77313
1,157,77381
1,158,77397
1,159,77450
1,160,77342
1,161,77229
1,162,77310
1,163,77507
1,164,77459
1,165,77535
1,166,77398
1,167,77369
1,168,77397
1,169,77474
1,170,77344
1,171,77306
1,172,77315
1,173,77306
1,174,77391
1,175,77330
1,176,77414
1,177,77444
1,178,77376
1,179,77444
1,180,77381
1,181,77392
1,182,77303
1,183,77471
1,184,77523
1,185,77463
1,186,77407
1,187,77441
1,188,77439
1,189,77331
1,190,77307
1,191,77333
1,192,77373
1,193,77309
1,194,77295
1,195,77319
1,196,77363
1,197,77440
1,198,77325
1,199,77366
1,200,77315
1,201,77418
1,202,77348
1,203,77390
1,204,77482
1,205,77347
1,206,77352
1,207,77476
1,208,77608
1,209,77493
1,210,77585
1,211,77454
1,212,77594
1,213,77551
1,214,77516
1,215,77617
1,216,77476
1,217,77643
1,218,77585
1,219,77546
1,220,77528
1,221,77662
1,222,77727
1,223,77670
1,224,77560
1,225,77625
1,226,77698
1,227,77781
1,228,77716
1,229,77695
1,230,77566
1,231,77668
1,232,77645
1,233,77846
1,234,77820
1,235,77852
1,236,77727
1,237,77727
1,238,77678
1,239,77758
1,240,77792
1,241,77727
1,242,77756
1,243,77811
1,244,77853
1,245,77960
1,246,77943
1,247,77881
1,248,77884
1,249,77825
1,250,77799
1,251,77955
1,252,77922
1,253,77944
1,254,77905
1,255,77894
1,256,78081
1,257,77784
1,258,78016
1,259,77975
1,260,77855
1,261,77930
1,262,78002
1,263,78029
1,264,77952
1,265,78047
1,266,77868
1,267,77931
1,268,77919
1,269,77951
1,270,78048
1,271,77958
1,272,77968
1,273,77864
1,274,78056
1,275,77965
1,276,78007
1,277,78188
1,278,77921
1,279,77985
1,280,77939
1,281,78072
1,282,78021
1,283,78060
1,284,78089
1,285,78143
1,286,77901
1,287,78052
1,288,78113
1,289,78041
1,290,77836
1,291,78140
1,292,78153
1,293,77934
1,294,78032
1,295,77917
1,296,78073
1,297,78012
1,298,78053
1,299,78130
1,300,78073
1,301,78142
1,302,78037
1,303,78064
1,304,77973
1,305,78090
1,306,78087
1,307,78042
1,308,78104
1,309,78045
1,310,77917
1,311,78041
1,312,78130
1,313,78089
1,314,78009
1,315,78047
1,316,78147
1,317,77963
1,318,78132
1,319,78012
1,320,78041
1,321,78085
1,322,78115
1,323,77938
1,324,78138
1,325,78056
1,326,78094
1,327,78249
1,328,78134
1,329,77946
1,330,78185
1,331,78059
1,332,78088
1,333,78083
1,334,78266
1,335,78143
1,336,78098
1,337,78175
1,338,78181
1,339,78123
1,340,78122
1,341,78134
1,342,78161
1,343,78150
1,344,77928
1,345,78059
1,346,78101
1,347,78030
1,348,78132
1,349,78077
1,350,78123
1,351,78019
1,352,78175
1,353,78180
1,354,78100
1,355,78095
1,356,78229
1,357,78156
1,358,78140
1,359,78109
1,360,78200
1,361,78033
1,362,78128
1,363,78224
1,364,78218
1,365,78250
1,366,78155
1,367,78287
1,368,78159
1,369,78174
1,370,78286
1,371,78188
1,372,78303
1,373,78133
1,374,78153
1,375,78231
1,376,78176
1,377,78082
1,378,78128
1,379,78160
1,380,78150
1,381,78102
1,382,78137
1,383,78107
1,384,78152
1,385,78165
1,386,78233
1,387,78287
1,388,78316
1,389,78156
1,390,78041
1,391,78151
1,392,78142
1,393,78191
1,394,78209
1,395,78130
1,396,78126
1,397,78158
1,398,77965
1,399,78229
1,400,78204
1,401,78200
1,402,78380
1,403,78185
1,404,78104
1,405,78230
1,406,78292
1,407,78151
1,408,78314
1,409,78235
1,410,78193
1,411,78339
1,412,78215
1,413,78221
1,414,78182
1,415,78216
1,416,78336
1,417,78150
1,418,78268
1,419,78211
1,420,78201
1,421,78139
1,422,78216
1,423,78208
1,424,78111
1,425,78223
1,426,78209
1,427,78240
1,428,78269
1,429,78196
1,430,78174
1,431,78124
1,432,78185
1,433,78311
1,434,78233
1,435,78310
1,436,78283
1,437,78313
1,438,78398
1,439,78193
1,440,78168
1,441,78300
1,442,78240
1,443,78099
1,444,78312
1,445,78353
1,446,78171
1,447,78171
1,448,78260
1,449,78283
1,450,78290
1,451,78265
1,452,78217
1,453,78176
1,454,78349
1,455,78309
1,456,78161
1,457,78284
1,458,78430
1,459,78211
1,460,78308
1,461,78334
1,462,78296
1,463,78362
1,464,78402
1,465,78449
1,466,78414
1,467,78357
1,468,78257
1,469,78315
1,470,78303
1,471,78193
1,472,78271
1,473,78327
1,474,78394
1,475,78347
1,476,78235
1,477,78387
1,478,78286
1,479,78290
1,480,78290
1,481,78398
1,482,78411
1,483,78353
1,484,78375
1,485,78398
1,486,78244
1,487,78458
1,488,78312
1,489,78288
1,490,78303
1,491,78351
1,492,78339
1,493,78406
1,494,78281
1,495,78417
1,496,78264
1,497,78303
1,498,78411
1,499,78498
1,500,78407
1,501,78335
1,502,78416
1,503,78228
1,504,78289
1,505,78327
1,506,78341
1,507,78313
1,508,78400
1,509,78444
1,510,78326
1,511,78394
1,512,78366
1,513,78416
1,514,78428
1,515,78230
1,516,78469
1,517,78487
1,518,78348
1,519,78418
1,520,78408
1,521,78408
1,522,78476
1,523,78287
1,524,78438
1,525,78321
1,526,78382
1,527,78359
1,528,78298
1,529,78378
1,530,78374
1,531,78528
1,532,78461
1,533,78499
1,534,78299
1,535,78358
1,536,78459
1,537,78440
1,538,78324
1,539,78445
1,540,78338
1,541,78441
1,542,78558
1,543,78349
1,544,78495
1,545,78320
1,546,78485
1,547,78401
1,548,78293
1,549,78419
1,550,78410
1,551,78338
1,552,78479
1,553,78458
1,554,78367
1,555,78626
1,556,78608
1,557,78596
1,558,78491
1,559,78481
1,560,78465
1,561,78421
1,562,78343
1,563,78326
1,564,78371
1,565,78610
1,566,78440
1,567,78457
1,568,78442
1,569,78357
1,570,78412
1,571,78538
1,572,78484
1,573,78403
1,574,78412
1,575,78328
1,576,78592
1,577,78489
1,578,78449
1,579,78430
1,580,78303
1,581,78551
1,582,78622
1,583,78542
1,584,78486
1,585,78526
1,586,78577
1,587,78446
1,588,78631
1,589,78583
1,590,78337
1,591,78489
1,592,78413
1,593,78406
1,594,78417
1,595,78527
1,596,78563
1,597,78478
1,598,78471
1,599,78504
1,600,78680
1,601,78401
1,602,78426
1,603,78483
1,604,78549
1,605,78577
1,606,78577
1,607,78550
1,608,78533
1,609,78517
1,610,78523
1,611,78591
1,612,78515
1,613,78512
1,614,78670
1,615,78556
1,616,78600
1,617,78441
1,618,78491
1,619,78612
1,620,78537
1,621,78468
1,622,78494
1,623,78511
1,624,78605
1,625,78420
1,626,78604
1,627,78479
1,628,78518
1,629,78655
1,630,78547
1,631,78612
1,632,78620
1,633,78538
1,634,78673
1,635,78625
1,636,78617
1,637,78536
1,638,78465
1,639,78504
1,640,78591
1,641,78594
1,642,78598
1,643,78675
1,644,78634
1,645,78565
1,646,78546
1,647,78442
1,648,78642
1,649,78602
1,650,78665
1,651,78525
1,652,78569
1,653,78803
1,654,78509
1,655,78440
1,656,78581
1,657,78656
1,658,78642
1,659,78645
1,660,78703
1,661,78684
1,662,78625
1,663,78649
1,664,78622
1,665,78480
1,666,78537
1,667,78592
1,668,78609
1,669,78674
1,670,78476
1,671,78796
1,672,78718
1,673,78432
1,674,78605
1,675,78724
1,676,78591
1,677,78547
1,678,78659
1,679,78584
1,680,78578
1,681,78597
1,682,78473
1,683,78722
1,684,78488
1,685,78647
1,686,78632
1,687,78666
1,688,78617
1,689,78652
1,690,78664
1,691,78665
1,692,78583
1,693,78665
1,694,78661
1,695,78697
1,696,78589
1,697,78707
1,698,78735
1,699,78760
1,700,78614
1,701,78756
1,702,78801
1,703,78550
1,704,78614
1,705,78727
1,706,78541
1,707,78589
1,708,78629
1,709,78705
1,710,78733
1,711,78578
1,712,78688
1,713,78639
1,714,78634
1,715,78638
1,716,78642
1,717,78798
1,718,78500
1,719,78585
1,720,78646
1,721,78591
1,722,78616
1,723,78789
1,724,78599
1,725,78811
1,726,78667
1,727,78733
1,728,78758
1,729,78574
1,730,78771
1,731,78707
1,732,78688
1,733,78663
1,734,78703
1,735,78724
1,736,78785
1,737,78763
1,738,78745
1,739,78657
1,740,78649
1,741,78672
1,742,78763
1,743,78602
1,744,78743
1,745,78794
1,746,78856
1,747,78664
1,748,78651
1,749,78696
1,750,78694
1,751,78694
1,752,78635
1,753,78757
1,754,78732
1,755,78691
1,756,78689
1,757,78877
1,758,78603
1,759,78550
1,760,78686
1,761,78727
1,762,78702
1,763,78705
1,764,78800
1,765,78843
1,766,78757
1,767,78795
1,768,78717
1,769,78727
1,770,78738
1,771,78783
1,772,78855
1,773,78698
1,774,78676
1,775,78653
1,776,78752
1,777,78713
1,778,78785
1,779,78674
1,780,78772
1,781,78856
1,782,78777
1,783,78765
1,784,78646
1,785,78753
1,786,78887
1,787,78904
1,788,78784
1,789,78708
1,790,78724
1,791,78820
1,792,78735
1,793,78709
1,794,78719
1,795,78821
1,796,78699
1,797,78666
1,798,78842
1,799,78781
1,800,78854
1,801,78686
1,802,78734
1,803,78671
1,804,78654
1,805,78765
1,806,78815
1,807,78827
1,808,78827
1,809,78969
1,810,78784
1,811,78741
1,812,78804
1,813,78846
1,814,78806
1,815,78815
1,816,78761
1,817,78864
1,818,78742
1,819,78628
1,820,78841
1,821,78798
1,822,78697
1,823,78681
1,824,78721
1,825,78754
1,826,78715
1,827,78839
1,828,78671
1,829,78805
1,830,78766
1,831,78618
1,832,78768
1,833,78831
1,834,78602
1,835,78928
1,836,78824
1,837,78784
1,838,78875
1,839,78882
1,840,78781
1,841,78815
1,842,78718
1,843,78991
1,844,78852
1,845,78856
1,846,78805
1,847,78871
1,848,78807
1,849,78701
1,850,78708
1,851,78777
1,852,78857
1,853,78807
1,854,78703
1,855,78832
1,856,78717
1,857,78774
1,858,78889
1,859,78700
1,860,78784
1,861,78892
1,862,78713
1,863,78820
1,864,78926
1,865,78891
1,866,78970
1,867,78885
1,868,78853
1,869,78746
1,870,78857
1,871,78827
1,872,78793
1,873,78902
1,874,78774
1,875,78827
1,876,78799
1,877,78979
1,878,78940
1,879,78801
1,880,78939
1,881,78819
1,882,78817
1,883,78838
1,884,78911
1,885,78822
1,886,78886
1,887,78964
1,888,78861
1,889,78911
1,890,78850
1,891,78928
1,892,78808
1,893,78715
1,894,78860
1,895,78985
1,896,78842
1,897,78847
1,898,78807
1,899,78794
1,900,78884
1,901,78816
1,902,78810
1,903,78887
1,904,78847
1,905,78931
1,906,78743
1,907,78861
1,908,78893
1,909,78702
1,910,78750
1,911,78830
1,912,78908
1,913,78804
1,914,78930
1,915,78842
1,916,78859
1,917,78785
1,918,78785
1,919,78923
1,920,78878
1,921,78924
1,922,78846
1,923,78740
1,924,78738
1,925,78718
1,926,78906
1,927,78852
1,928,78762
1,929,78842
1,930,78774
1,931,78787
1,932,78823
1,933,78875
1,934,78956
1,935,79018
1,936,78937
1,937,78717
1,938,78800
1,939,78844
1,940,78787
1,941,79006
1,942,78819
1,943,79016
1,944,78807
1,945,78836
1,946,78945
1,947,78956
1,948,78835
1,949,78945
1,950,78857
1,951,78846
1,952,78827
1,953,78866
1,954,78805
1,955,78907
1,956,78777
1,957,78993
1,958,78844
1,959,78882
1,960,78670
1,961,78862
1,962,78853
1,963,78835
1,964,78898
1,965,78959
1,966,78963
1,967,78941
1,968,78971
1,969,78785
1,970,78928
1,971,79017
1,972,78932
1,973,78949
1,974,79065
1,975,78817
1,976,78807
1,977,78843
1,978,78951
1,979,78962
1,980,78895
1,981,78927
1,982,78790
1,983,78967
1,984,78853
1,985,78906
1,986,78978
1,987,78953
1,988,78874
1,989,78808
1,990,78850
1,991,78933
1,992,78963
1,993,78750
1,994,78911
1,995,78934
1,996,78940
1,997,78810
1,998,78907
1,999,78851
1,1000,78847
1,1001,78935
1,1002,78955
1,1003,78858
1,1004,78827
1,1005,78938
1,1006,78882
1,1007,78905
1,1008,78840
1,1009,78846
1,1010,78747
1,1011,78760
1,1012,78829
1,1013,79046
1,1014,78906
1,1015,78915
1,1016,78820
1,1017,78946
1,1018,78827
1,1019,78825
1,1020,78879
1,1021,78983
1,1022,78992
1,1023,78900
1,1024,79028
1,1025,78799
1,1026,78982
1,1027,79024
1,1028,79005
1,1029,79130
1,1030,78984
1,1031,78968
1,1032,79016
1,1033,78935
1,1034,78952
1,1035,78952
1,1036,79007
1,1037,79076
1,1038,78832
1,1039,78840
1,1040,78837
1,1041,78910
1,1042,79051
1,1043,78960
1,1044,78844
1,1045,78983
1,1046,78892
1,1047,79022
1,1048,78759
1,1049,78820
1,1050,78891
1,1051,78882
1,1052,78937
1,1053,78660
1,1054,78729
1,1055,79008
1,1056,78861
1,1057,78925
1,1058,78914
1,1059,78892
1,1060,78895
1,1061,78876
1,1062,78914
1,1063,78992
1,1064,79065
1,1065,78926
1,1066,79043
1,1067,79035
1,1068,78997
1,1069,78801
1,1070,78774
1,1071,79024
1,1072,78978
1,1073,78940
1,1074,78880
1,1075,78987
1,1076,78979
1,1077,78922
1,1078,79047
1,1079,78868
1,1080,78875
1,1081,78783
1,1082,78932
1,1083,78857
1,1084,78806
1,1085,78845
1,1086,78970
1,1087,78975
1,1088,78860
1,1089,78867
1,1090,78898
1,1091,78701
1,1092,78856
1,1093,78861
1,1094,78751
1,1095,78793
1,1096,78806
1,1097,78886
1,1098,78946
1,1099,78845
1,1100,78909
1,1101,78841
1,1102,78859
1,1103,78856
1,1104,78893
1,1105,78949
1,1106,78890
1,1107,78746
1,1108,78904
1,1109,78779
1,1110,78872
1,1111,78920
1,1112,78963
1,1113,78856
1,1114,78908
1,1115,78884
1,1116,78852
1,1117,78789
1,1118,78936
1,1119,78875
1,1120,78816
1,1121,78843
1,1122,78810
1,1123,78866
1,1124,78757
1,1125,79054
1,1126,78941
1,1127,79019
1,1128,79027
1,1129,78851
1,1130,78830
1,1131,78986
1,1132,79020
1,1133,78961
1,1134,78846
1,1135,78847
1,1136,78958
1,1137,78885
1,1138,78953
1,1139,79015
1,1140,78863
1,1141,78952
1,1142,78753
1,1143,78777
1,1144,78946
1,1145,78849
1,1146,78825
1,1147,78895
1,1148,78926
1,1149,78773
1,1150,78854
1,1151,78828
1,1152,78876
1,1153,78811
1,1154,78875
1,1155,78844
1,1156,78940
1,1157,78904
1,1158,78995
1,1159,78924
1,1160,78845
1,1161,78971
1,1162,78879
1,1163,78781
1,1164,78829
1,1165,78844
1,1166,78837
1,1167,79023
1,1168,78868
1,1169,78853
1,1170,78839
1,1171,78868
1,1172,78738
1,1173,78800
1,1174,78809
1,1175,78666
1,1176,78898
1,1177,78841
1,1178,78985
1,1179,78910
1,1180,78849
1,1181,78888
1,1182,78837
1,1183,78788
1,1184,78708
1,1185,78778
1,1186,78882
1,1187,78712
1,1188,78635
1,1189,78618
1,1190,78804
1,1191,78862
1,1192,78847
1,1193,78755
1,1194,78809
1,1195,78770
1,1196,78943
1,1197,78900
1,1198,78763
1,1199,78786
1,1200,78824
1,1201,78921
1,1202,78814
1,1203,78807
1,1204,78881
1,1205,78823
1,1206,78886
1,1207,78758
1,1208,78732
1,1209,78874
1,1210,78923
1,1211,78677
1,1212,78766
1,1213,78833
1,1214,78789
1,1215,78951
1,1216,78894
1,1217,78875
1,1218,78771
1,1219,78925
1,1220,78720
1,1221,78835
1,1222,78812
1,1223,78970
1,1224,78795
1,1225,78710
1,1226,78791
1,1227,78832
1,1228,78817
1,1229,78646
1,1230,78814
1,1231,78899
1,1232,78984
1,1233,78834
1,1234,78870
1,1235,78848
1,1236,78828
1,1237,78874
1,1238,78988
1,1239,78789
1,1240,78864
1,1241,78876
1,1242,78821
1,1243,78902
1,1244,78661
1,1245,78867
1,1246,78702
1,1247,78711
1,1248,78877
1,1249,78868
1,1250,78888
1,1251,78874
1,1252,78918
1,1253,78774
1,1254,78894
1,1255,78857
1,1256,78850
1,1257,78790
1,1258,78814
1,1259,78895
1,1260,78767
1,1261,78855
1,1262,78845
1,1263,78894
1,1264,78840
1,1265,78823
1,1266,78754
1,1267,78853
1,1268,78885
1,1269,78684
1,1270,78843
1,1271,78932
1,1272,78914
1,1273,78864
1,1274,78784
1,1275,78690
1,1276,78775
1,1277,78855
1,1278,78714
1,1279,78756
1,1280,78845
1,1281,78740
1,1282,78651
1,1283,78651
1,1284,78714
1,1285,78607
1,1286,78752
1,1287,78531
1,1288,78623
1,1289,78679
1,1290,78804
1,1291,78674
1,1292,78643
1,1293,78551
1,1294,78566
1,1295,78502
1,1296,78400
1,1297,78541
1,1298,78564
1,1299,78534
1,1300,78412
1,1301,78601
1,1302,78513
1,1303,78346
1,1304,78595
1,1305,78460
1,1306,78485
1,1307,78467
1,1308,78444
1,1309,78430
1,1310,78479
1,1311,78426
1,1312,78268
1,1313,78331
1,1314,78324
1,1315,78336
1,1316,78358
1,1317,78431
1,1318,78243
1,1319,78246
1,1320,78254
1,1321,77957
1,1322,78198
1,1323,78133
1,1324,78069
1,1325,78119
1,1326,78226
1,1327,78096
1,1328,78098
1,1329,78159
1,1330,78002
1,1331,77905
1,1332,77757
1,1333,77755
1,1334,77842
1,1335,77805
1,1336,77784
1,1337,77591
1,1338,77541
1,1339,76368
1,1340,117929
