1,1,79256
1,2,79095
1,3,79042
1,4,79029
1,5,79059
1,6,79078
1,7,79167
1,8,79214
1,9,79035
1,10,78977
1,11,78857
1,12,78854
1,13,78946
1,14,78909
1,15,79061
1,16,78843
1,17,78876
1,18,78893
1,19,78908
1,20,78919
1,21,79015
1,22,78998
1,23,78973
1,24,78911
1,25,78909
1,26,79079
1,27,78993
1,28,78996
1,29,78887
1,30,78997
1,31,79005
1,32,78935
1,33,78904
1,34,78972
1,35,78895
1,36,78969
1,37,78897
1,38,79065
1,39,79060
1,40,79035
1,41,78946
1,42,78930
1,43,79151
1,44,79334
1,45,79177
1,46,79035
1,47,79067
1,48,79094
1,49,79148
1,50,79011
1,51,78925
1,52,78983
1,53,79049
1,54,79097
1,55,79121
1,56,79119
1,57,79042
1,58,79188
1,59,79012
1,60,79057
1,61,78974
1,62,79183
1,63,79011
1,64,79011
1,65,79093
1,66,79002
1,67,79132
1,68,78874
1,69,78983
1,70,79142
1,71,79063
1,72,78972
1,73,79210
1,74,79276
1,75,79029
1,76,78876
1,77,78986
1,78,78760
1,79,78866
1,80,78874
1,81,78867
1,82,78867
1,83,78816
1,84,78840
1,85,78734
1,86,78642
1,87,78812
1,88,78867
1,89,78749
1,90,78793
1,91,78914
1,92,78983
1,93,78739
1,94,78640
1,95,78944
1,96,78789
1,97,78764
1,98,78760
1,99,78678
1,100,78675
1,101,78793
1,102,78675
1,103,78771
1,104,78684
1,105,78753
1,106,78665
1,107,78740
1,108,78764
1,109,78832
1,110,78843
1,111,78809
1,112,78578
1,113,78683
1,114,78817
1,115,78492
1,116,78615
1,117,79017
1,118,78597
1,119,78571
1,120,78699
1,121,78843
1,122,78550
1,123,78744
1,124,78649
1,125,78550
1,126,78807
1,127,78598
1,128,78628
1,129,78701
1,130,78679
1,131,78772
1,132,78439
1,133,78788
1,134,79078
1,135,78702
1,136,78698
1,137,78602
1,138,78597
1,139,78658
1,140,78679
1,141,78628
1,142,78719
1,143,78592
1,144,78588
1,145,78760
1,146,78635
1,147,78667
1,148,78746
1,149,78560
1,150,78607
1,151,78603
1,152,78617
1,153,78481
1,154,78720
1,155,78696
1,156,78593
1,157,78642
1,158,78610
1,159,78925
1,160,78759
1,161,78661
1,162,78802
1,163,78607
1,164,78612
1,165,78780
1,166,78694
1,167,78840
1,168,78785
1,169,78535
1,170,78779
1,171,78924
1,172,78628
1,173,78615
1,174,78574
1,175,78618
1,176,78747
1,177,78755
1,178,78884
1,179,78628
1,180,78682
1,181,78665
1,182,78843
1,183,78652
1,184,78748
1,185,78792
1,186,78770
1,187,78764
1,188,78674
1,189,78757
1,190,78748
1,191,79023
1,192,78821
1,193,78593
1,194,78761
1,195,78610
1,196,78624
1,197,78778
1,198,78793
1,199,78686
1,200,78951
1,201,79299
1,202,78904
1,203,78857
1,204,79065
1,205,78806
1,206,78964
1,207,79077
1,208,78991
1,209,78954
1,210,78901
1,211,78933
1,212,78960
1,213,79098
1,214,79089
1,215,79050
1,216,79082
1,217,79153
1,218,79171
1,219,79043
1,220,79093
1,221,79032
1,222,79146
1,223,79173
1,224,79375
1,225,79215
1,226,79221
1,227,79085
1,228,79157
1,229,79350
1,230,79336
1,231,79257
1,232,79126
1,233,79202
1,234,79450
1,235,79190
1,236,79210
1,237,79476
1,238,79395
1,239,79262
1,240,79371
1,241,79448
1,242,79273
1,243,79197
1,244,79336
1,245,79312
1,246,79374
1,247,79423
1,248,79379
1,249,79346
1,250,79442
1,251,79491
1,252,79378
1,253,79374
1,254,79315
1,255,79471
1,256,79313
1,257,79352
1,258,79345
1,259,79560
1,260,79384
1,261,79430
1,262,79450
1,263,79374
1,264,79508
1,265,79401
1,266,79387
1,267,79445
1,268,79517
1,269,79513
1,270,79549
1,271,79409
1,272,79610
1,273,79387
1,274,79394
1,275,79365
1,276,79455
1,277,79459
1,278,79591
1,279,79497
1,280,79514
1,281,79438
1,282,79449
1,283,79591
1,284,79792
1,285,79448
1,286,79238
1,287,79442
1,288,79394
1,289,79537
1,290,79685
1,291,79519
1,292,79651
1,293,79447
1,294,79548
1,295,79545
1,296,79318
1,297,79592
1,298,79669
1,299,79359
1,300,79427
1,301,79629
1,302,79514
1,303,79579
1,304,79594
1,305,79667
1,306,79419
1,307,79305
1,308,79481
1,309,79253
1,310,79694
1,311,79387
1,312,79591
1,313,79658
1,314,79672
1,315,79554
1,316,79537
1,317,79578
1,318,79539
1,319,79576
1,320,79507
1,321,79506
1,322,79420
1,323,79436
1,324,79643
1,325,79519
1,326,79730
1,327,79597
1,328,79502
1,329,79522
1,330,79646
1,331,79616
1,332,79468
1,333,79737
1,334,79839
1,335,79714
1,336,79518
1,337,79538
1,338,79570
1,339,79493
1,340,79665
1,341,79861
1,342,79531
1,343,79721
1,344,79412
1,345,79684
1,346,79578
1,347,79556
1,348,79679
1,349,79672
1,350,79754
1,351,79581
1,352,79619
1,353,79511
1,354,79586
1,355,79731
1,356,79643
1,357,79561
1,358,79828
1,359,79601
1,360,79735
1,361,80178
1,362,79515
1,363,79668
1,364,79603
1,365,79562
1,366,79737
1,367,79807
1,368,79588
1,369,79590
1,370,79688
1,371,79497
1,372,79710
1,373,79544
1,374,79608
1,375,79631
1,376,79551
1,377,79623
1,378,79518
1,379,79638
1,380,79793
1,381,79633
1,382,79593
1,383,79777
1,384,79662
1,385,79643
1,386,79734
1,387,79635
1,388,79878
1,389,79833
1,390,79680
1,391,79711
1,392,79685
1,393,79568
1,394,79785
1,395,79751
1,396,79710
1,397,79719
1,398,79739
1,399,79591
1,400,79636
1,401,79803
1,402,79585
1,403,79723
1,404,79689
1,405,79693
1,406,79921
1,407,79876
1,408,79950
1,409,79473
1,410,79637
1,411,79714
1,412,79576
1,413,79505
1,414,79740
1,415,79616
1,416,79661
1,417,79665
1,418,79731
1,419,79626
1,420,79602
1,421,79811
1,422,79691
1,423,79675
1,424,79842
1,425,79556
1,426,79714
1,427,79868
1,428,79767
1,429,79783
1,430,79587
1,431,79847
1,432,79840
1,433,79744
1,434,79745
1,435,79760
1,436,79785
1,437,79822
1,438,79642
1,439,79743
1,440,79891
1,441,79845
1,442,79752
1,443,79682
1,444,79765
1,445,79613
1,446,79782
1,447,79736
1,448,79766
1,449,79657
1,450,79793
1,451,79717
1,452,79640
1,453,79763
1,454,79874
1,455,79698
1,456,79729
1,457,79837
1,458,79778
1,459,79893
1,460,79842
1,461,80143
1,462,79979
1,463,79811
1,464,79814
1,465,79796
1,466,79782
1,467,79676
1,468,79773
1,469,79759
1,470,79891
1,471,80192
1,472,79685
1,473,79711
1,474,79888
1,475,79886
1,476,79677
1,477,79845
1,478,79711
1,479,79882
1,480,79695
1,481,79881
1,482,79854
1,483,79888
1,484,79921
1,485,79912
1,486,79841
1,487,79798
1,488,79922
1,489,79811
1,490,79716
1,491,79861
1,492,79932
1,493,79714
1,494,79909
1,495,80028
1,496,79977
1,497,79902
1,498,80055
1,499,79866
1,500,79742
1,501,79782
1,502,79917
1,503,79805
1,504,79884
1,505,79853
1,506,79776
1,507,80096
1,508,80107
1,509,79773
1,510,79901
1,511,79828
1,512,79913
1,513,79977
1,514,80007
1,515,79849
1,516,79928
1,517,80002
1,518,79850
1,519,80092
1,520,79830
1,521,79976
1,522,80125
1,523,79813
1,524,79960
1,525,79905
1,526,79876
1,527,79903
1,528,79896
1,529,79805
1,530,79942
1,531,80131
1,532,79745
1,533,79856
1,534,79830
1,535,80007
1,536,80098
1,537,79783
1,538,79892
1,539,80104
1,540,79755
1,541,79983
1,542,80005
1,543,79885
1,544,79948
1,545,80009
1,546,80092
1,547,79890
1,548,79926
1,549,79873
1,550,79976
1,551,80033
1,552,80025
1,553,79823
1,554,79919
1,555,80222
1,556,80012
1,557,80065
1,558,79853
1,559,79912
1,560,80010
1,561,79819
1,562,80056
1,563,79906
1,564,80005
1,565,79944
1,566,79852
1,567,80104
1,568,80043
1,569,79986
1,570,79936
1,571,80103
1,572,80000
1,573,80037
1,574,80161
1,575,80465
1,576,80278
1,577,80283
1,578,80258
1,579,80130
1,580,80255
1,581,80193
1,582,80255
1,583,80119
1,584,80344
1,585,80135
1,586,80228
1,587,80183
1,588,80195
1,589,80184
1,590,80222
1,591,80173
1,592,80108
1,593,80065
1,594,80019
1,595,79976
1,596,79968
1,597,80013
1,598,80043
1,599,80128
1,600,79985
1,601,79864
1,602,80099
1,603,80151
1,604,80064
1,605,79904
1,606,79887
1,607,79945
1,608,80112
1,609,80030
1,610,80049
1,611,80008
1,612,80053
1,613,80089
1,614,79943
1,615,80004
1,616,80128
1,617,80258
1,618,80078
1,619,80095
1,620,80104
1,621,79938
1,622,80003
1,623,80046
1,624,80130
1,625,80044
1,626,80060
1,627,80108
1,628,79989
1,629,80260
1,630,80242
1,631,80136
1,632,80033
1,633,80081
1,634,79901
1,635,80066
1,636,80067
1,637,80137
1,638,80128
1,639,80095
1,640,80021
1,641,80022
1,642,80169
1,643,80163
1,644,80044
1,645,80134
1,646,80065
1,647,79982
1,648,80009
1,649,79966
1,650,80063
1,651,80072
1,652,79917
1,653,80120
1,654,80074
1,655,80149
1,656,80183
1,657,80052
1,658,80238
1,659,80185
1,660,79834
1,661,80363
1,662,80346
1,663,80171
1,664,80133
1,665,80105
1,666,80154
1,667,80184
1,668,80036
1,669,80307
1,670,80312
1,671,80215
1,672,80128
1,673,80111
1,674,80076
1,675,79911
1,676,79902
1,677,80220
1,678,80163
1,679,80229
1,680,80124
1,681,81440
1,682,80135
1,683,80041
1,684,80148
1,685,80160
1,686,80050
1,687,80218
1,688,80098
1,689,80252
1,690,80093
1,691,80183
1,692,80327
1,693,80227
1,694,80176
1,695,80143
1,696,80023
1,697,80261
1,698,80232
1,699,80053
1,700,80105
1,701,80070
1,702,80091
1,703,80158
1,704,80139
1,705,80092
1,706,80136
1,707,80315
1,708,80217
1,709,80067
1,710,80096
1,711,80185
1,712,80101
1,713,80114
1,714,80139
1,715,80237
1,716,80124
1,717,80088
1,718,80187
1,719,80199
1,720,80157
1,721,80165
1,722,80100
1,723,80263
1,724,79976
1,725,80235
1,726,80113
1,727,80134
1,728,80140
1,729,80061
1,730,80082
1,731,80049
1,732,80209
1,733,80120
1,734,80128
1,735,80177
1,736,80197
1,737,80253
1,738,80206
1,739,80110
1,740,80248
1,741,80231
1,742,80130
1,743,80214
1,744,80152
1,745,80225
1,746,80112
1,747,80180
1,748,80074
1,749,80278
1,750,80387
1,751,80412
1,752,80211
1,753,80185
1,754,80313
1,755,80188
1,756,80166
1,757,80208
1,758,79976
1,759,80219
1,760,80277
1,761,80345
1,762,80154
1,763,80276
1,764,80137
1,765,80127
1,766,80252
1,767,80123
1,768,80173
1,769,80149
1,770,80076
1,771,80096
1,772,80085
1,773,80228
1,774,80378
1,775,80349
1,776,80268
1,777,80197
1,778,80292
1,779,80254
1,780,80280
1,781,80194
1,782,80063
1,783,80357
1,784,80296
1,785,80234
1,786,80307
1,787,80180
1,788,80090
1,789,80227
1,790,80117
1,791,80286
1,792,80406
1,793,80203
1,794,80245
1,795,80316
1,796,80408
1,797,80323
1,798,80340
1,799,80198
1,800,80104
1,801,80297
1,802,80434
1,803,80313
1,804,80421
1,805,80261
1,806,80254
1,807,80316
1,808,80312
1,809,80237
1,810,80412
1,811,80335
1,812,80279
1,813,80584
1,814,80295
1,815,80319
1,816,80103
1,817,80342
1,818,80421
1,819,80533
1,820,80462
1,821,80390
1,822,80626
1,823,80600
1,824,80530
1,825,80560
1,826,80705
1,827,80679
1,828,80945
1,829,80824
1,830,80643
1,831,80750
1,832,80860
1,833,80626
1,834,80778
1,835,80860
1,836,81035
1,837,80844
1,838,80830
1,839,80920
1,840,80840
1,841,80656
1,842,80834
1,843,80812
1,844,80590
1,845,80862
1,846,80550
1,847,80676
1,848,80532
1,849,80494
1,850,80302
1,851,80444
1,852,80326
1,853,80631
1,854,80340
1,855,80248
1,856,80584
1,857,80348
1,858,80362
1,859,80408
1,860,80309
1,861,80573
1,862,80291
1,863,80302
1,864,80386
1,865,80405
1,866,80510
1,867,80501
1,868,80208
1,869,80448
1,870,80510
1,871,80256
1,872,80174
1,873,80268
1,874,80374
1,875,80557
1,876,80204
1,877,80298
1,878,80274
1,879,80339
1,880,80300
1,881,80271
1,882,80446
1,883,80364
1,884,80227
1,885,80417
1,886,80356
1,887,80475
1,888,80464
1,889,80334
1,890,80377
1,891,80218
1,892,80171
1,893,80523
1,894,80380
1,895,80307
1,896,80310
1,897,80354
1,898,80358
1,899,80199
1,900,80341
1,901,80242
1,902,80205
1,903,80340
1,904,80354
1,905,80238
1,906,80381
1,907,80289
1,908,80558
1,909,80510
1,910,80415
1,911,80514
1,912,80487
1,913,80366
1,914,80207
1,915,80190
1,916,80235
1,917,80260
1,918,80429
1,919,80460
1,920,80395
1,921,80305
1,922,80356
1,923,80369
1,924,80360
1,925,80232
1,926,80271
1,927,80406
1,928,80354
1,929,80447
1,930,80495
1,931,80476
1,932,80505
1,933,80359
1,934,80397
1,935,80304
1,936,80289
1,937,80296
1,938,80206
1,939,80329
1,940,80269
1,941,80390
1,942,80504
1,943,80375
1,944,80433
1,945,80192
1,946,80490
1,947,80310
1,948,80201
1,949,80268
1,950,80292
1,951,80413
1,952,80477
1,953,80445
1,954,80437
1,955,80702
1,956,80143
1,957,80301
1,958,80297
1,959,80349
1,960,80276
1,961,80252
1,962,80386
1,963,80413
1,964,80397
1,965,80162
1,966,80276
1,967,80265
1,968,80433
1,969,80358
1,970,80351
1,971,80335
1,972,80627
1,973,80527
1,974,80291
1,975,80434
1,976,80387
1,977,80354
1,978,80351
1,979,80364
1,980,80226
1,981,80579
1,982,80403
1,983,80016
1,984,80184
1,985,80468
1,986,80279
1,987,80288
1,988,80370
1,989,80480
1,990,80402
1,991,80509
1,992,80347
1,993,80220
1,994,80275
1,995,80316
1,996,80388
1,997,80408
1,998,80367
1,999,80426
1,1000,80433
1,1001,80236
1,1002,80341
1,1003,80440
1,1004,80365
1,1005,80359
1,1006,80348
1,1007,80579
1,1008,80359
1,1009,80447
1,1010,80573
1,1011,80480
1,1012,80630
1,1013,80561
1,1014,80397
1,1015,80435
1,1016,80420
1,1017,80614
1,1018,80398
1,1019,80468
1,1020,80511
1,1021,80300
1,1022,80302
1,1023,80620
1,1024,80088
1,1025,80446
1,1026,80399
1,1027,80271
1,1028,80398
1,1029,80628
1,1030,80372
1,1031,80441
1,1032,80499
1,1033,80281
1,1034,80748
1,1035,80624
1,1036,80669
1,1037,80595
1,1038,80451
1,1039,80330
1,1040,80405
1,1041,80590
1,1042,80575
1,1043,80451
1,1044,80394
1,1045,80349
1,1046,80519
1,1047,80571
1,1048,80386
1,1049,80532
1,1050,80344
1,1051,80409
1,1052,80684
1,1053,80581
1,1054,80541
1,1055,80565
1,1056,80379
1,1057,80587
1,1058,80380
1,1059,80488
1,1060,80142
1,1061,80515
1,1062,80403
1,1063,80469
1,1064,80188
1,1065,80496
1,1066,80371
1,1067,80414
1,1068,80546
1,1069,80484
1,1070,80447
1,1071,80610
1,1072,80548
1,1073,80586
1,1074,80758
1,1075,80828
1,1076,80687
1,1077,80721
1,1078,80778
1,1079,80757
1,1080,80731
1,1081,80920
1,1082,80792
1,1083,80888
1,1084,81001
1,1085,80906
1,1086,80877
1,1087,80823
1,1088,80700
1,1089,80664
1,1090,80680
1,1091,80761
1,1092,80634
1,1093,80513
1,1094,80657
1,1095,80989
1,1096,80728
1,1097,80677
1,1098,80732
1,1099,80609
1,1100,80756
1,1101,80792
1,1102,80698
1,1103,80943
1,1104,80666
1,1105,80420
1,1106,80488
1,1107,80421
1,1108,80436
1,1109,80546
1,1110,80337
1,1111,80341
1,1112,80270
1,1113,80441
1,1114,80352
1,1115,80489
1,1116,80350
1,1117,80418
1,1118,80363
1,1119,80476
1,1120,80545
1,1121,80404
1,1122,80493
1,1123,80625
1,1124,80608
1,1125,80545
1,1126,80505
1,1127,80429
1,1128,80583
1,1129,80472
1,1130,80389
1,1131,80430
1,1132,80381
1,1133,80487
1,1134,80532
1,1135,80503
1,1136,80414
1,1137,80506
1,1138,80396
1,1139,80511
1,1140,80491
1,1141,80400
1,1142,80510
1,1143,80537
1,1144,80376
1,1145,80563
1,1146,81248
1,1147,80503
1,1148,80487
1,1149,80611
1,1150,80572
1,1151,80546
1,1152,80294
1,1153,80417
1,1154,80474
1,1155,80607
1,1156,80582
1,1157,80412
1,1158,80540
1,1159,80689
1,1160,80614
1,1161,80659
1,1162,80477
1,1163,80550
1,1164,80538
1,1165,80455
1,1166,80402
1,1167,80239
1,1168,80338
1,1169,80518
1,1170,80507
1,1171,80562
1,1172,80516
1,1173,80398
1,1174,80528
1,1175,80390
1,1176,80350
1,1177,80616
1,1178,80417
1,1179,80604
1,1180,80339
1,1181,80445
1,1182,80572
1,1183,80527
1,1184,80426
1,1185,80537
1,1186,80420
1,1187,80722
1,1188,80619
1,1189,80445
1,1190,80566
1,1191,80571
1,1192,80582
1,1193,80505
1,1194,80427
1,1195,80341
1,1196,80555
1,1197,80515
1,1198,80454
1,1199,80664
1,1200,80365
1,1201,80652
1,1202,80392
1,1203,80489
1,1204,80250
1,1205,80547
1,1206,80259
1,1207,80560
1,1208,80562
1,1209,80469
1,1210,80324
1,1211,80504
1,1212,80567
1,1213,80454
1,1214,80337
1,1215,80421
1,1216,80593
1,1217,80504
1,1218,80571
1,1219,80662
1,1220,80429
1,1221,80317
1,1222,80822
1,1223,80636
1,1224,80622
1,1225,80430
1,1226,80628
1,1227,80566
1,1228,80445
1,1229,80749
1,1230,80599
1,1231,80600
1,1232,80776
1,1233,80567
1,1234,80454
1,1235,80428
1,1236,80681
1,1237,80617
1,1238,80554
1,1239,80644
1,1240,80559
1,1241,80520
1,1242,80648
1,1243,80597
1,1244,80701
1,1245,80616
1,1246,80424
1,1247,80481
1,1248,80469
1,1249,80549
1,1250,80637
1,1251,80735
1,1252,80611
1,1253,80783
1,1254,80661
1,1255,80568
1,1256,80597
1,1257,80592
1,1258,80699
1,1259,80587
1,1260,80349
1,1261,80515
1,1262,80560
1,1263,80533
1,1264,80394
1,1265,80544
1,1266,80540
1,1267,80584
1,1268,80701
1,1269,80687
1,1270,80491
1,1271,80437
1,1272,80359
1,1273,80527
1,1274,80697
1,1275,80538
1,1276,80714
1,1277,80512
1,1278,80463
1,1279,80467
1,1280,80483
1,1281,80763
1,1282,80331
1,1283,80538
1,1284,80442
1,1285,80480
1,1286,80500
1,1287,80546
1,1288,80485
1,1289,80512
1,1290,80496
1,1291,80417
1,1292,80488
1,1293,80722
1,1294,80386
1,1295,80394
1,1296,80222
1,1297,80198
1,1298,80394
1,1299,80409
1,1300,80111
1,1301,80254
1,1302,80369
1,1303,80296
1,1304,80374
1,1305,80432
1,1306,80147
1,1307,80313
1,1308,80258
1,1309,80245
1,1310,80197
1,1311,80371
1,1312,80325
1,1313,80196
1,1314,80140
1,1315,80407
1,1316,80274
1,1317,80309
1,1318,80077
1,1319,80175
1,1320,80249
1,1321,80151
1,1322,80236
1,1323,79972
1,1324,80111
1,1325,80213
1,1326,80159
1,1327,79939
1,1328,80098
1,1329,79962
1,1330,80064
1,1331,80000
1,1332,79951
1,1333,79676
1,1334,79739
1,1335,79709
1,1336,79657
1,1337,79730
1,1338,79605
1,1339,78220
1,1340,119216
