1,1,77755
1,2,77748
1,3,77860
1,4,77770
1,5,77820
1,6,77869
1,7,77846
1,8,77775
1,9,77614
1,10,77917
1,11,77684
1,12,77764
1,13,77849
1,14,77794
1,15,77751
1,16,77860
1,17,77868
1,18,77714
1,19,77728
1,20,77677
1,21,77733
1,22,77796
1,23,77735
1,24,77766
1,25,77772
1,26,77670
1,27,77885
1,28,77811
1,29,77757
1,30,77646
1,31,77815
1,32,77767
1,33,77805
1,34,77856
1,35,77790
1,36,77738
1,37,77881
1,38,77602
1,39,77746
1,40,77837
1,41,77816
1,42,77811
1,43,77826
1,44,77733
1,45,77750
1,46,77814
1,47,77745
1,48,77735
1,49,77778
1,50,77740
1,51,77771
1,52,77792
1,53,77823
1,54,77821
1,55,77834
1,56,77687
1,57,77626
1,58,77758
1,59,77823
1,60,77893
1,61,77644
1,62,77733
1,63,77746
1,64,77790
1,65,77711
1,66,77703
1,67,77777
1,68,77667
1,69,77734
1,70,77640
1,71,77667
1,72,77734
1,73,77791
1,74,77829
1,75,77600
1,76,77526
1,77,77705
1,78,77741
1,79,77779
1,80,77887
1,81,77649
1,82,77779
1,83,77861
1,84,77813
1,85,77889
1,86,77775
1,87,77635
1,88,77786
1,89,77623
1,90,77767
1,91,77753
1,92,77772
1,93,77681
1,94,77769
1,95,77828
1,96,77674
1,97,77814
1,98,77742
1,99,77678
1,100,77824
1,101,77768
1,102,77623
1,103,77700
1,104,77699
1,105,77783
1,106,77740
1,107,77782
1,108,77794
1,109,77735
1,110,77653
1,111,77734
1,112,77748
1,113,77726
1,114,77842
1,115,77782
1,116,77775
1,117,77790
1,118,77884
1,119,77660
1,120,77896
1,121,77743
1,122,77880
1,123,77680
1,124,77829
1,125,77640
1,126,77788
1,127,77838
1,128,77873
1,129,77840
1,130,77852
1,131,77823
1,132,77799
1,133,77695
1,134,77871
1,135,77737
1,136,77745
1,137,77621
1,138,77789
1,139,77767
1,140,77874
1,141,77856
1,142,77641
1,143,77783
1,144,77738
1,145,77667
1,146,77719
1,147,77799
1,148,77788
1,149,77818
1,150,77734
1,151,77721
1,152,77777
1,153,77767
1,154,77713
1,155,77962
1,156,77784
1,157,77756
1,158,77876
1,159,77683
1,160,77739
1,161,77735
1,162,77825
1,163,77746
1,164,77886
1,165,77689
1,166,77796
1,167,77700
1,168,77888
1,169,77691
1,170,77869
1,171,77845
1,172,77880
1,173,77842
1,174,77850
1,175,77816
1,176,77691
1,177,77705
1,178,77680
1,179,77773
1,180,77751
1,181,77745
1,182,77695
1,183,77787
1,184,77904
1,185,77760
1,186,77692
1,187,77837
1,188,77667
1,189,77802
1,190,77884
1,191,77796
1,192,77718
1,193,77773
1,194,77722
1,195,77883
1,196,77970
1,197,77778
1,198,77751
1,199,77681
1,200,77714
1,201,77731
1,202,77837
1,203,77816
1,204,77752
1,205,77894
1,206,77854
1,207,77866
1,208,77820
1,209,77806
1,210,77778
1,211,77728
1,212,77783
1,213,77773
1,214,77679
1,215,77770
1,216,77944
1,217,77851
1,218,77822
1,219,77713
1,220,77802
1,221,77883
1,222,77859
1,223,77795
1,224,77706
1,225,77733
1,226,77664
1,227,77895
1,228,77742
1,229,77655
1,230,77779
1,231,77763
1,232,77731
1,233,77756
1,234,77816
1,235,77784
1,236,77787
1,237,77800
1,238,77705
1,239,77789
1,240,77694
1,241,77760
1,242,77820
1,243,77781
1,244,77793
1,245,77782
1,246,77772
1,247,77732
1,248,77740
1,249,77765
1,250,77659
1,251,77749
1,252,77751
1,253,77840
1,254,77699
1,255,77832
1,256,77706
1,257,77798
1,258,77790
1,259,77817
1,260,77734
1,261,77674
1,262,77738
1,263,77860
1,264,77870
1,265,77865
1,266,77719
1,267,77690
1,268,77693
1,269,77811
1,270,77655
1,271,77848
1,272,77811
1,273,77851
1,274,77801
1,275,77696
1,276,77801
1,277,77791
1,278,77652
1,279,77863
1,280,77827
1,281,77896
1,282,77858
1,283,77749
1,284,77723
1,285,77792
1,286,77772
1,287,77852
1,288,77945
1,289,77836
1,290,77667
1,291,77767
1,292,77640
1,293,77785
1,294,77737
1,295,77782
1,296,77809
1,297,77778
1,298,77820
1,299,77912
1,300,77736
1,301,77790
1,302,77783
1,303,77874
1,304,77732
1,305,77831
1,306,77800
1,307,77742
1,308,77752
1,309,77729
1,310,77812
1,311,77845
1,312,77831
1,313,77828
1,314,77776
1,315,77782
1,316,77736
1,317,77904
1,318,77629
1,319,77686
1,320,77684
1,321,77694
1,322,77677
1,323,77683
1,324,77725
1,325,77730
1,326,77841
1,327,77713
1,328,77712
1,329,77797
1,330,77699
1,331,77684
1,332,77672
1,333,77709
1,334,77771
1,335,77640
1,336,77814
1,337,77849
1,338,77796
1,339,77774
1,340,77835
1,341,77719
1,342,77762
1,343,77833
1,344,77796
1,345,77827
1,346,77799
1,347,77718
1,348,77798
1,349,77746
1,350,77807
1,351,77838
1,352,77762
1,353,77730
1,354,77793
1,355,77733
1,356,77772
1,357,77836
1,358,77732
1,359,77790
1,360,77688
1,361,77865
1,362,77826
1,363,77707
1,364,77723
1,365,77686
1,366,77847
1,367,77788
1,368,77818
1,369,77800
1,370,77807
1,371,77777
1,372,77843
1,373,77718
1,374,77712
1,375,77754
1,376,77704
1,377,77726
1,378,77823
1,379,77734
1,380,77791
1,381,77795
1,382,77705
1,383,77781
1,384,77730
1,385,77656
1,386,77726
1,387,77835
1,388,77662
1,389,77723
1,390,77669
1,391,77728
1,392,77858
1,393,77697
1,394,77861
1,395,77830
1,396,77732
1,397,77775
1,398,77936
1,399,77739
1,400,77783
1,401,77839
1,402,77731
1,403,77846
1,404,77805
1,405,77739
1,406,77789
1,407,77738
1,408,77769
1,409,77771
1,410,77826
1,411,77629
1,412,77825
1,413,77835
1,414,77717
1,415,77788
1,416,77688
1,417,77818
1,418,77827
1,419,77757
1,420,77888
1,421,77782
1,422,77677
1,423,77752
1,424,77770
1,425,77896
1,426,77836
1,427,77778
1,428,77733
1,429,77901
1,430,77972
1,431,77779
1,432,77768
1,433,77583
1,434,77770
1,435,77849
1,436,77876
1,437,77740
1,438,77800
1,439,77736
1,440,77865
1,441,77869
1,442,77770
1,443,77755
1,444,77705
1,445,77761
1,446,77827
1,447,77839
1,448,77789
1,449,77737
1,450,77779
1,451,77787
1,452,77734
1,453,77797
1,454,77663
1,455,77783
1,456,77708
1,457,77864
1,458,77826
1,459,77792
1,460,77673
1,461,77669
1,462,77961
1,463,77747
1,464,77707
1,465,77822
1,466,77596
1,467,77765
1,468,77762
1,469,77823
1,470,77826
1,471,77779
1,472,77687
1,473,77800
1,474,77794
1,475,77807
1,476,77862
1,477,77716
1,478,77765
1,479,77794
1,480,77761
1,481,77761
1,482,77781
1,483,77803
1,484,77704
1,485,77797
1,486,77786
1,487,77828
1,488,77759
1,489,77732
1,490,77792
1,491,77847
1,492,77522
1,493,77744
1,494,77728
1,495,77727
1,496,77757
1,497,77724
1,498,77720
1,499,77785
1,500,77784
1,501,77705
1,502,77853
1,503,77892
1,504,77784
1,505,77804
1,506,77681
1,507,77819
1,508,77805
1,509,77782
1,510,77907
1,511,77776
1,512,77741
1,513,77883
1,514,77745
1,515,77738
1,516,77881
1,517,77817
1,518,77824
1,519,77813
1,520,77756
1,521,77728
1,522,77810
1,523,77811
1,524,77708
1,525,77881
1,526,77915
1,527,77728
1,528,77733
1,529,77610
1,530,77763
1,531,77620
1,532,77675
1,533,77881
1,534,77795
1,535,77680
1,536,77785
1,537,77780
1,538,77802
1,539,77744
1,540,77760
1,541,77688
1,542,77725
1,543,77739
1,544,77875
1,545,77802
1,546,77756
1,547,77776
1,548,77803
1,549,77780
1,550,77759
1,551,77759
1,552,77735
1,553,77791
1,554,77750
1,555,77676
1,556,77837
1,557,77752
1,558,77736
1,559,77844
1,560,77795
1,561,77822
1,562,77771
1,563,77697
1,564,77729
1,565,77825
1,566,77662
1,567,77703
1,568,77751
1,569,77835
1,570,77644
1,571,77724
1,572,77820
1,573,77879
1,574,77748
1,575,77672
1,576,77754
1,577,77697
1,578,77782
1,579,77808
1,580,77796
1,581,77683
1,582,77865
1,583,77744
1,584,77754
1,585,77831
1,586,77787
1,587,77606
1,588,77747
1,589,77816
1,590,77641
1,591,77864
1,592,77830
1,593,77696
1,594,77877
1,595,77762
1,596,77753
1,597,77702
1,598,77860
1,599,77827
1,600,77854
1,601,77668
1,602,77795
1,603,77815
1,604,77789
1,605,77774
1,606,77744
1,607,77713
1,608,77752
1,609,77841
1,610,77733
1,611,77816
1,612,77644
1,613,77784
1,614,77791
1,615,77807
1,616,77951
1,617,77773
1,618,77887
1,619,77733
1,620,77759
1,621,77719
1,622,77842
1,623,77714
1,624,77784
1,625,77702
1,626,77761
1,627,77784
1,628,77748
1,629,77843
1,630,77836
1,631,77734
1,632,77688
1,633,77855
1,634,77790
1,635,77792
1,636,77732
1,637,77614
1,638,77697
1,639,77786
1,640,77843
1,641,77802
1,642,77765
1,643,77847
1,644,77881
1,645,77858
1,646,77623
1,647,77818
1,648,77812
1,649,77894
1,650,77786
1,651,77835
1,652,77874
1,653,77842
1,654,77732
1,655,77884
1,656,77733
1,657,77774
1,658,77820
1,659,77832
1,660,77772
1,661,77772
1,662,77828
1,663,77684
1,664,77736
1,665,77839
1,666,77736
1,667,77887
1,668,77722
1,669,77767
1,670,77746
1,671,77801
1,672,77861
1,673,77785
1,674,77807
1,675,77725
1,676,77745
1,677,77714
1,678,77969
1,679,77807
1,680,77810
1,681,77714
1,682,77759
1,683,77828
1,684,77780
1,685,77948
1,686,77776
1,687,77790
1,688,77828
1,689,77742
1,690,77948
1,691,77747
1,692,77790
1,693,77914
1,694,77761
1,695,77777
1,696,77848
1,697,77871
1,698,77819
1,699,77705
1,700,77678
1,701,77941
1,702,77857
1,703,77688
1,704,77831
1,705,77788
1,706,77894
1,707,77882
1,708,77807
1,709,77775
1,710,77668
1,711,77651
1,712,77695
1,713,77660
1,714,77822
1,715,77760
1,716,77750
1,717,77866
1,718,77806
1,719,77757
1,720,77805
1,721,77700
1,722,77767
1,723,77784
1,724,77900
1,725,77780
1,726,77823
1,727,77822
1,728,77853
1,729,77742
1,730,77715
1,731,77849
1,732,77823
1,733,77755
1,734,77841
1,735,77841
1,736,77673
1,737,77675
1,738,77729
1,739,77856
1,740,77884
1,741,77685
1,742,77787
1,743,77763
1,744,77818
1,745,77828
1,746,77780
1,747,77663
1,748,77778
1,749,77782
1,750,77749
1,751,77668
1,752,77890
1,753,77779
1,754,77902
1,755,77693
1,756,77859
1,757,77802
1,758,77888
1,759,77811
1,760,77697
1,761,77738
1,762,77832
1,763,77731
1,764,77801
1,765,77763
1,766,77788
1,767,77771
1,768,77782
1,769,77725
1,770,77633
1,771,77879
1,772,77799
1,773,77782
1,774,77743
1,775,77838
1,776,78011
1,777,77762
1,778,77807
1,779,77755
1,780,77848
1,781,77789
1,782,77859
1,783,77710
1,784,77728
1,785,77789
1,786,77736
1,787,77854
1,788,77884
1,789,77866
1,790,77740
1,791,77813
1,792,77673
1,793,77771
1,794,77830
1,795,77697
1,796,77780
1,797,77748
1,798,77784
1,799,77819
1,800,77828
1,801,77812
1,802,77733
1,803,77921
1,804,77744
1,805,77882
1,806,77840
1,807,77752
1,808,77884
1,809,77858
1,810,77771
1,811,77817
1,812,77925
1,813,77765
1,814,77822
1,815,77814
1,816,77816
1,817,77869
1,818,77895
1,819,77854
1,820,77862
1,821,77690
1,822,77754
1,823,77790
1,824,77804
1,825,77775
1,826,77817
1,827,77772
1,828,77796
1,829,77857
1,830,77706
1,831,77792
1,832,77825
1,833,77672
1,834,77749
1,835,77727
1,836,77974
1,837,77747
1,838,77864
1,839,77651
1,840,77859
1,841,77763
1,842,77838
1,843,77876
1,844,77876
1,845,77753
1,846,77755
1,847,77673
1,848,77571
1,849,77827
1,850,77731
1,851,77685
1,852,77676
1,853,77800
1,854,77900
1,855,77811
1,856,77730
1,857,77748
1,858,77818
1,859,77835
1,860,77807
1,861,77775
1,862,77753
1,863,77780
1,864,77846
1,865,77744
1,866,77796
1,867,77697
1,868,77639
1,869,77922
1,870,77795
1,871,77808
1,872,77841
1,873,77755
1,874,77844
1,875,77799
1,876,77817
1,877,77788
1,878,77860
1,879,77670
1,880,77770
1,881,77859
1,882,77854
1,883,77817
1,884,77742
1,885,77841
1,886,77769
1,887,77822
1,888,77870
1,889,77821
1,890,77782
1,891,77700
1,892,77769
1,893,77702
1,894,77781
1,895,77709
1,896,77753
1,897,77815
1,898,77786
1,899,77806
1,900,77867
1,901,77800
1,902,77815
1,903,77739
1,904,77719
1,905,77765
1,906,77744
1,907,77917
1,908,77769
1,909,77804
1,910,77658
1,911,77789
1,912,77852
1,913,77726
1,914,77902
1,915,78046
1,916,77694
1,917,77860
1,918,77783
1,919,77727
1,920,77661
1,921,77876
1,922,77765
1,923,77799
1,924,77848
1,925,77702
1,926,77738
1,927,77813
1,928,77672
1,929,77913
1,930,78006
1,931,77845
1,932,77900
1,933,77793
1,934,77791
1,935,77823
1,936,77739
1,937,77763
1,938,77766
1,939,77696
1,940,77730
1,941,77699
1,942,77813
1,943,77804
1,944,77919
1,945,77777
1,946,77913
1,947,77803
1,948,77807
1,949,77840
1,950,77835
1,951,77872
1,952,77690
1,953,77814
1,954,77836
1,955,77894
1,956,77844
1,957,77788
1,958,77855
1,959,77855
1,960,77612
1,961,77850
1,962,77791
1,963,77783
1,964,77797
1,965,77824
1,966,77814
1,967,77793
1,968,77760
1,969,77656
1,970,77932
1,971,77859
1,972,77724
1,973,77848
1,974,77777
1,975,77817
1,976,77737
1,977,77795
1,978,77870
1,979,77739
1,980,77668
1,981,77803
1,982,77796
1,983,77769
1,984,77767
1,985,77747
1,986,77807
1,987,77743
1,988,77761
1,989,77663
1,990,77742
1,991,77788
1,992,77771
1,993,77712
1,994,77882
1,995,77949
1,996,77981
1,997,77761
1,998,77831
1,999,77756
1,1000,77887
1,1001,77712
1,1002,77864
1,1003,77726
1,1004,77806
1,1005,77846
1,1006,77926
1,1007,77752
1,1008,77861
1,1009,77778
1,1010,77856
1,1011,77813
1,1012,77802
1,1013,77892
1,1014,77848
1,1015,77789
1,1016,77878
1,1017,77992
1,1018,77857
1,1019,77844
1,1020,77752
1,1021,77868
1,1022,77772
1,1023,77878
1,1024,77859
1,1025,77894
1,1026,77935
1,1027,77667
1,1028,77797
1,1029,77867
1,1030,77826
1,1031,77860
1,1032,77805
1,1033,77690
1,1034,77803
1,1035,77710
1,1036,77866
1,1037,77977
1,1038,77863
1,1039,77771
1,1040,77846
1,1041,77771
1,1042,77881
1,1043,77873
1,1044,77792
1,1045,77777
1,1046,77663
1,1047,77684
1,1048,77928
1,1049,77759
1,1050,77883
1,1051,77888
1,1052,77740
1,1053,77914
1,1054,77719
1,1055,77784
1,1056,77865
1,1057,77815
1,1058,77812
1,1059,77839
1,1060,77882
1,1061,77728
1,1062,77917
1,1063,77851
1,1064,77723
1,1065,77823
1,1066,77922
1,1067,77679
1,1068,77821
1,1069,77891
1,1070,77806
1,1071,77834
1,1072,77944
1,1073,77841
1,1074,77703
1,1075,77710
1,1076,77765
1,1077,77790
1,1078,77834
1,1079,77703
1,1080,77744
1,1081,77825
1,1082,77791
1,1083,77815
1,1084,77792
1,1085,77739
1,1086,77861
1,1087,77845
1,1088,77915
1,1089,77814
1,1090,77842
1,1091,77958
1,1092,77849
1,1093,77767
1,1094,77861
1,1095,77731
1,1096,77859
1,1097,77788
1,1098,77791
1,1099,77991
1,1100,77882
1,1101,77864
1,1102,77854
1,1103,77781
1,1104,77710
1,1105,77816
1,1106,77932
1,1107,77939
1,1108,77941
1,1109,77844
1,1110,77789
1,1111,77891
1,1112,77869
1,1113,77902
1,1114,77779
1,1115,77749
1,1116,77800
1,1117,77916
1,1118,77971
1,1119,77840
1,1120,77740
1,1121,77878
1,1122,77779
1,1123,77811
1,1124,77868
1,1125,77891
1,1126,77935
1,1127,77961
1,1128,77799
1,1129,77817
1,1130,77897
1,1131,77939
1,1132,77885
1,1133,77854
1,1134,77896
1,1135,77798
1,1136,77762
1,1137,77812
1,1138,77884
1,1139,77859
1,1140,77750
1,1141,77922
1,1142,77647
1,1143,77870
1,1144,77975
1,1145,77818
1,1146,77998
1,1147,77914
1,1148,77841
1,1149,77890
1,1150,77937
1,1151,77813
1,1152,77943
1,1153,77911
1,1154,77780
1,1155,77883
1,1156,77859
1,1157,77834
1,1158,77892
1,1159,77817
1,1160,77910
1,1161,77904
1,1162,77856
1,1163,77879
1,1164,77911
1,1165,77775
1,1166,77855
1,1167,78000
1,1168,77844
1,1169,77885
1,1170,77820
1,1171,77834
1,1172,77935
1,1173,77945
1,1174,77836
1,1175,77902
1,1176,77796
1,1177,77648
1,1178,77828
1,1179,77831
1,1180,77785
1,1181,77862
1,1182,77859
1,1183,77885
1,1184,77899
1,1185,77908
1,1186,77974
1,1187,77966
1,1188,77836
1,1189,77879
1,1190,77778
1,1191,77769
1,1192,77817
1,1193,77748
1,1194,77793
1,1195,77857
1,1196,77904
1,1197,77841
1,1198,77913
1,1199,77799
1,1200,77820
1,1201,77794
1,1202,77933
1,1203,77730
1,1204,77810
1,1205,77782
1,1206,77881
1,1207,77833
1,1208,77802
1,1209,77816
1,1210,77825
1,1211,77879
1,1212,77971
1,1213,77768
1,1214,77799
1,1215,77902
1,1216,78024
1,1217,77792
1,1218,77860
1,1219,77822
1,1220,77896
1,1221,77895
1,1222,77991
1,1223,77921
1,1224,77862
1,1225,78005
1,1226,77846
1,1227,77925
1,1228,77885
1,1229,77942
1,1230,77898
1,1231,77880
1,1232,77856
1,1233,77871
1,1234,77931
1,1235,77866
1,1236,78008
1,1237,77899
1,1238,77946
1,1239,77871
1,1240,77917
1,1241,77988
1,1242,77995
1,1243,77982
1,1244,78024
1,1245,78073
1,1246,78055
1,1247,78069
1,1248,77937
1,1249,77974
1,1250,78174
1,1251,78090
1,1252,78121
1,1253,78004
1,1254,77957
1,1255,78038
1,1256,78067
1,1257,77934
1,1258,77956
1,1259,78015
1,1260,77995
1,1261,78014
1,1262,77974
1,1263,77930
1,1264,77804
1,1265,77991
1,1266,77994
1,1267,78122
1,1268,77889
1,1269,78135
1,1270,77947
1,1271,78061
1,1272,77889
1,1273,78046
1,1274,77898
1,1275,78013
1,1276,77973
1,1277,78026
1,1278,78012
1,1279,77962
1,1280,77944
1,1281,77992
1,1282,78038
1,1283,77922
1,1284,77894
1,1285,77923
1,1286,78002
1,1287,77960
1,1288,77922
1,1289,78059
1,1290,77935
1,1291,77883
1,1292,78009
1,1293,77894
1,1294,78024
1,1295,77938
1,1296,78008
1,1297,77964
1,1298,77869
1,1299,78012
1,1300,77906
1,1301,77972
1,1302,77899
1,1303,77836
1,1304,77750
1,1305,77831
1,1306,77887
1,1307,77886
1,1308,77937
1,1309,77809
1,1310,77961
1,1311,77792
1,1312,77849
1,1313,77789
1,1314,78029
1,1315,77801
1,1316,77940
1,1317,77833
1,1318,77679
1,1319,77757
1,1320,77794
1,1321,77841
1,1322,77856
1,1323,77890
1,1324,77742
1,1325,77690
1,1326,77692
1,1327,77680
1,1328,77868
1,1329,77779
1,1330,77520
1,1331,77781
1,1332,77565
1,1333,77625
1,1334,77645
1,1335,77543
1,1336,77240
1,1337,77302
1,1338,77254
1,1339,75986
1,1340,117297
