1,1,357313
1,2,357908
1,3,358408
1,4,358763
1,5,359398
1,6,359973
1,7,360528
1,8,360899
1,9,361782
1,10,362229
1,11,362750
1,12,363553
1,13,363947
1,14,364500
1,15,365201
1,16,365765
1,17,366100
1,18,366926
1,19,367165
1,20,367722
1,21,368409
1,22,369088
1,23,369704
1,24,370238
1,25,370372
1,26,371089
1,27,371550
1,28,372243
1,29,372700
1,30,373329
1,31,373821
1,32,374703
1,33,375175
1,34,375576
1,35,376251
1,36,377025
1,37,377527
1,38,378147
1,39,378729
1,40,379448
1,41,380086
1,42,380679
1,43,381409
1,44,382448
1,45,382656
1,46,383106
1,47,384197
1,48,384507
1,49,385456
1,50,385633
1,51,386241
1,52,387318
1,53,388191
1,54,388662
1,55,389555
1,56,390339
1,57,390992
1,58,391859
1,59,392349
1,60,393150
1,61,393820
1,62,394701
1,63,395621
1,64,396229
1,65,397060
1,66,397586
1,67,398435
1,68,399097
1,69,399373
1,70,399948
1,71,400654
1,72,400679
1,73,400325
1,74,400315
1,75,398765
1,76,397266
1,77,395133
1,78,392609
1,79,390563
1,80,388270
1,81,385627
1,82,383119
1,83,380295
1,84,377577
1,85,374812
1,86,371795
1,87,369361
1,88,366860
1,89,363924
1,90,361457
1,91,359156
1,92,356927
1,93,354916
1,94,352761
1,95,350796
1,96,348729
1,97,346690
1,98,344913
1,99,343176
1,100,341220
1,101,339825
1,102,338701
1,103,337260
1,104,336364
1,105,335333
1,106,334848
1,107,334612
1,108,334424
1,109,334648
1,110,335574
1,111,338070
1,112,341688
1,113,348300
1,114,368637
1,115,396888
1,116,412256
1,117,423833
1,118,445322
1,119,452040
1,120,432793
1,121,417799
1,122,412467
1,123,395187
1,124,372612
1,125,360298
1,126,354631
1,127,347640
1,128,341512
1,129,339276
1,130,337880
1,131,336589
1,132,335082
1,133,334673
1,134,334497
1,135,333329
1,136,332597
1,137,331952
1,138,331433
1,139,330954
1,140,330370
1,141,329861
1,142,329434
1,143,329469
1,144,328973
1,145,328641
1,146,328426
1,147,328465
1,148,328223
1,149,328267
1,150,328247
1,151,328035
1,152,327829
1,153,327859
1,154,328038
1,155,327761
1,156,327692
1,157,327712
1,158,327695
1,159,327916
1,160,327805
1,161,327757
1,162,327903
1,163,327796
1,164,327815
1,165,327891
1,166,327987
1,167,327824
1,168,327758
1,169,327768
1,170,327880
1,171,328065
1,172,327782
1,173,327991
1,174,327941
1,175,328066
1,176,328303
1,177,328379
1,178,328353
1,179,328695
1,180,328821
1,181,329078
1,182,329301
1,183,329648
1,184,330061
1,185,330931
1,186,331785
1,187,333003
1,188,334575
1,189,336884
1,190,339838
1,191,343928
1,192,349033
1,193,357253
1,194,370287
1,195,384058
1,196,406759
1,197,439835
1,198,467120
1,199,477754
1,200,495200
1,201,494104
1,202,487897
1,203,468606
1,204,456488
1,205,441399
1,206,424376
1,207,410369
1,208,403170
1,209,397127
1,210,392725
1,211,391701
1,212,393359
1,213,395741
1,214,398522
1,215,401675
1,216,404391
1,217,407308
1,218,410748
1,219,414917
1,220,420065
1,221,424867
1,222,429181
1,223,433105
1,224,435859
1,225,437670
1,226,440645
1,227,444608
1,228,449068
1,229,454400
1,230,458817
1,231,462504
1,232,465377
1,233,467258
1,234,469236
1,235,471314
1,236,474167
1,237,477942
1,238,481631
1,239,485866
1,240,489872
1,241,492707
1,242,494615
1,243,496504
1,244,497716
1,245,499829
1,246,502401
1,247,505561
1,248,509697
1,249,513529
1,250,516406
1,251,518982
1,252,520220
1,253,522273
1,254,523959
1,255,526116
1,256,527990
1,257,531526
1,258,534318
1,259,537921
1,260,540450
1,261,542841
1,262,544302
1,263,545695
1,264,547147
1,265,548788
1,266,551220
1,267,553496
1,268,556242
1,269,558802
1,270,561255
1,271,563076
1,272,564334
1,273,565765
1,274,567051
1,275,568592
1,276,570453
1,277,572118
1,278,574621
1,279,575956
1,280,578572
1,281,579907
1,282,581023
1,283,581734
1,284,582480
1,285,584072
1,286,586155
1,287,587161
1,288,588273
1,289,590656
1,290,592201
1,291,593041
1,292,594771
1,293,595718
1,294,596631
1,295,598570
1,296,599007
1,297,600014
1,298,601834
1,299,603122
1,300,604360
1,301,605383
1,302,606746
1,303,607789
1,304,609151
1,305,610212
1,306,610895
1,307,611502
1,308,612554
1,309,612848
1,310,614560
1,311,615630
1,312,616912
1,313,618210
1,314,619108
1,315,619301
1,316,619951
1,317,620858
1,318,622692
1,319,623134
1,320,624091
1,321,625251
1,322,625849
1,323,627105
1,324,628672
1,325,628996
1,326,630206
1,327,631141
1,328,632029
1,329,632338
1,330,633789
1,331,634702
1,332,635469
1,333,636852
1,334,638149
1,335,638160
1,336,638426
1,337,639282
1,338,640509
1,339,641449
1,340,642237
1,341,643864
1,342,644025
1,343,645223
1,344,646212
1,345,646903
1,346,648101
1,347,649347
1,348,650563
1,349,650888
1,350,651444
1,351,651706
1,352,653105
1,353,654669
1,354,655823
1,355,656908
1,356,657489
1,357,658359
1,358,659198
1,359,660221
1,360,661066
1,361,662307
1,362,662929
1,363,663770
1,364,664529
1,365,665476
1,366,666939
1,367,668219
1,368,669546
1,369,670112
1,370,670824
1,371,671765
1,372,673229
1,373,674539
1,374,675570
1,375,676149
1,376,677619
1,377,678849
1,378,680253
1,379,681277
1,380,682517
1,381,683316
1,382,684014
1,383,685518
1,384,686721
1,385,687904
1,386,688369
1,387,689512
1,388,690939
1,389,691875
1,390,693190
1,391,694848
1,392,695500
1,393,697187
1,394,697965
1,395,699204
1,396,699980
1,397,702151
1,398,702323
1,399,704349
1,400,705403
1,401,706870
1,402,708453
1,403,709943
1,404,711119
1,405,713202
1,406,714017
1,407,715431
1,408,716660
1,409,717582
1,410,719027
1,411,719627
1,412,722656
1,413,723787
1,414,724618
1,415,726850
1,416,727523
1,417,729157
1,418,730285
1,419,732148
1,420,733763
1,421,734735
1,422,736451
1,423,737266
1,424,738837
1,425,740094
1,426,740886
1,427,742462
1,428,743576
1,429,744645
1,430,745985
1,431,748256
1,432,749779
1,433,751032
1,434,752280
1,435,753228
1,436,754866
1,437,755948
1,438,757946
1,439,758996
1,440,760257
1,441,761817
1,442,763400
1,443,765179
1,444,766021
1,445,767304
1,446,769213
1,447,770747
1,448,772660
1,449,772851
1,450,774526
1,451,776137
1,452,778296
1,453,779476
1,454,780370
1,455,782347
1,456,783801
1,457,785805
1,458,786439
1,459,788476
1,460,789613
1,461,791373
1,462,792337
1,463,793803
1,464,795062
1,465,796680
1,466,797887
1,467,799992
1,468,801045
1,469,802238
1,470,804270
1,471,805597
1,472,807256
1,473,808578
1,474,810474
1,475,811752
1,476,813092
1,477,815387
1,478,816266
1,479,818168
1,480,819213
1,481,821917
1,482,822716
1,483,823350
1,484,825007
1,485,826594
1,486,828106
1,487,829103
1,488,830112
1,489,831761
1,490,833211
1,491,834436
1,492,835496
1,493,836308
1,494,838945
1,495,840003
1,496,841308
1,497,842608
1,498,843559
1,499,845803
1,500,847536
1,501,847844
1,502,849977
1,503,851378
1,504,853437
1,505,854686
1,506,855493
1,507,857196
1,508,859131
1,509,860128
1,510,861711
1,511,863117
1,512,863139
1,513,865491
1,514,867061
1,515,868323
1,516,869971
1,517,871560
1,518,872595
1,519,873965
1,520,875961
1,521,877567
1,522,877982
1,523,880415
1,524,881595
1,525,882144
1,526,884856
1,527,886415
1,528,889200
1,529,890170
1,530,892349
1,531,893706
1,532,895122
1,533,895770
1,534,898089
1,535,898980
1,536,900726
1,537,902050
1,538,904006
1,539,905995
1,540,906998
1,541,908942
1,542,910858
1,543,912330
1,544,914139
1,545,916479
1,546,918928
1,547,919645
1,548,921194
1,549,923385
1,550,924129
1,551,926551
1,552,927105
1,553,929180
1,554,930289
1,555,931306
1,556,932748
1,557,934726
1,558,935366
1,559,937343
1,560,937980
1,561,938993
1,562,941583
1,563,942260
1,564,943980
1,565,944829
1,566,946750
1,567,947450
1,568,949295
1,569,950459
1,570,951617
1,571,952505
1,572,953456
1,573,954758
1,574,955961
1,575,957451
1,576,959018
1,577,959029
1,578,960574
1,579,961518
1,580,962048
1,581,963394
1,582,964465
1,583,966199
1,584,967289
1,585,968639
1,586,969528
1,587,971025
1,588,972654
1,589,972246
1,590,973787
1,591,974813
1,592,975800
1,593,976413
1,594,977615
1,595,978707
1,596,979478
1,597,981022
1,598,981103
1,599,981682
1,600,982382
1,601,983942
1,602,984666
1,603,984891
1,604,986388
1,605,987031
1,606,988157
1,607,988954
1,608,989777
1,609,989716
1,610,990937
1,611,991882
1,612,992182
1,613,992634
1,614,993004
1,615,992510
1,616,993653
1,617,993807
1,618,994576
1,619,994729
1,620,996248
1,621,996232
1,622,996650
1,623,997320
1,624,997493
1,625,998441
1,626,997591
1,627,998264
1,628,997403
1,629,997470
1,630,996307
1,631,996857
1,632,997075
1,633,995643
1,634,995186
1,635,995223
1,636,996230
1,637,995381
1,638,995005
1,639,995561
1,640,995076
1,641,994544
1,642,993327
1,643,993886
1,644,993956
1,645,994063
1,646,992512
1,647,993696
1,648,992899
1,649,992052
1,650,992224
1,651,992235
1,652,991934
1,653,991909
1,654,990087
1,655,990121
1,656,990320
1,657,989350
1,658,988290
1,659,988535
1,660,987974
1,661,986248
1,662,986599
1,663,986106
1,664,985403
1,665,983496
1,666,983334
1,667,983392
1,668,981564
1,669,981608
1,670,979742
1,671,978200
1,672,977484
1,673,977732
1,674,977344
1,675,975851
1,676,975333
1,677,975897
1,678,975174
1,679,975416
1,680,973357
1,681,973879
1,682,971292
1,683,971208
1,684,968601
1,685,969097
1,686,968083
1,687,966152
1,688,965539
1,689,964891
1,690,962897
1,691,961794
1,692,961332
1,693,957706
1,694,956730
1,695,954666
1,696,953375
1,697,952504
1,698,950285
1,699,948953
1,700,946692
1,701,944914
1,702,943629
1,703,942546
1,704,941892
1,705,939679
1,706,937960
1,707,936284
1,708,934393
1,709,933675
1,710,932337
1,711,930205
1,712,927387
1,713,927255
1,714,926140
1,715,924571
1,716,921818
1,717,920389
1,718,918196
1,719,916135
1,720,915064
1,721,912324
1,722,911330
1,723,909967
1,724,908755
1,725,907599
1,726,905678
1,727,904235
1,728,903343
1,729,901865
1,730,900067
1,731,898715
1,732,898170
1,733,896421
1,734,894993
1,735,893853
1,736,891243
1,737,890356
1,738,888632
1,739,888364
1,740,886386
1,741,885620
1,742,883670
1,743,882144
1,744,880250
1,745,879466
1,746,878751
1,747,876953
1,748,875396
1,749,875132
1,750,872856
1,751,872699
1,752,870764
1,753,870286
1,754,869439
1,755,867401
1,756,867391
1,757,866101
1,758,864069
1,759,863135
1,760,862586
1,761,861465
1,762,859988
1,763,858532
1,764,858300
1,765,857109
1,766,856254
1,767,855181
1,768,853416
1,769,851941
1,770,851091
1,771,849788
1,772,848829
1,773,848914
1,774,847752
1,775,846840
1,776,845598
1,777,844745
1,778,843477
1,779,842929
1,780,842639
1,781,842023
1,782,840626
1,783,840708
1,784,839689
1,785,837923
1,786,838425
1,787,837179
1,788,836066
1,789,835988
1,790,834930
1,791,835380
1,792,835715
1,793,834955
1,794,835116
1,795,834089
1,796,835053
1,797,835046
1,798,834253
1,799,835289
1,800,836010
1,801,836246
1,802,835079
1,803,835425
1,804,834274
1,805,833663
1,806,832215
1,807,831036
1,808,829736
1,809,829372
1,810,827093
1,811,825587
1,812,824001
1,813,823357
1,814,821626
1,815,820561
1,816,819153
1,817,819012
1,818,817529
1,819,817660
1,820,816230
1,821,816861
1,822,816268
1,823,817288
1,824,817359
1,825,817544
1,826,819071
1,827,817697
1,828,818199
1,829,817334
1,830,815767
1,831,814646
1,832,812843
1,833,810607
1,834,808627
1,835,807757
1,836,806195
1,837,804391
1,838,804148
1,839,802531
1,840,801982
1,841,800606
1,842,800260
1,843,798958
1,844,797369
1,845,796516
1,846,794347
1,847,793841
1,848,793181
1,849,792538
1,850,790874
1,851,791520
1,852,790705
1,853,789749
1,854,789833
1,855,788603
1,856,788744
1,857,787846
1,858,787589
1,859,787740
1,860,785709
1,861,785474
1,862,785547
1,863,785082
1,864,785023
1,865,784265
1,866,783710
1,867,783007
1,868,782123
1,869,782587
1,870,782004
1,871,781370
1,872,780198
1,873,780002
1,874,779499
1,875,778968
1,876,779017
1,877,777365
1,878,777630
1,879,776723
1,880,776187
1,881,775977
1,882,775968
1,883,775024
1,884,774327
1,885,774356
1,886,774456
1,887,774005
1,888,773820
1,889,773435
1,890,773070
1,891,772871
1,892,772933
1,893,772753
1,894,772454
1,895,771990
1,896,770638
1,897,770615
1,898,770655
1,899,770092
1,900,769914
1,901,770368
1,902,769703
1,903,770449
1,904,770579
1,905,770298
1,906,770999
1,907,771064
1,908,771187
1,909,772017
1,910,772976
1,911,774247
1,912,775864
1,913,778800
1,914,780846
1,915,782949
1,916,786345
1,917,787931
1,918,789015
1,919,789274
1,920,788796
1,921,788618
1,922,786517
1,923,784333
1,924,783468
1,925,781789
1,926,781367
1,927,779586
1,928,778108
1,929,776910
1,930,775855
1,931,775627
1,932,773425
1,933,772662
1,934,770592
1,935,768939
1,936,767747
1,937,766020
1,938,764223
1,939,762856
1,940,761426
1,941,759453
1,942,757972
1,943,758207
1,944,757354
1,945,755652
1,946,754635
1,947,753291
1,948,752549
1,949,751534
1,950,751533
1,951,751020
1,952,750459
1,953,750158
1,954,749246
1,955,750138
1,956,748460
1,957,747593
1,958,747632
1,959,747272
1,960,747251
1,961,746688
1,962,745825
1,963,745300
1,964,744968
1,965,744505
1,966,744048
1,967,743890
1,968,743802
1,969,742957
1,970,742601
1,971,741857
1,972,741128
1,973,740845
1,974,741059
1,975,740041
1,976,740689
1,977,738947
1,978,739886
1,979,739387
1,980,738263
1,981,738594
1,982,737802
1,983,737642
1,984,737236
1,985,736871
1,986,737372
1,987,736631
1,988,735992
1,989,735221
1,990,735021
1,991,735032
1,992,735181
1,993,733753
1,994,734305
1,995,733407
1,996,733160
1,997,733047
1,998,732588
1,999,731990
1,1000,732372
1,1001,731594
1,1002,731423
1,1003,731177
1,1004,730839
1,1005,730487
1,1006,729623
1,1007,729939
1,1008,728683
1,1009,728886
1,1010,728773
1,1011,727692
1,1012,727593
1,1013,727002
1,1014,727286
1,1015,726744
1,1016,726758
1,1017,726966
1,1018,725854
1,1019,725895
1,1020,725448
1,1021,725059
1,1022,723936
1,1023,723863
1,1024,723695
1,1025,722683
1,1026,722611
1,1027,721920
1,1028,721913
1,1029,721288
1,1030,721722
1,1031,721140
1,1032,720593
1,1033,719881
1,1034,719955
1,1035,719100
1,1036,719348
1,1037,719049
1,1038,718866
1,1039,718054
1,1040,718257
1,1041,717828
1,1042,717344
1,1043,716773
1,1044,716628
1,1045,716262
1,1046,716478
1,1047,716295
1,1048,716165
1,1049,716263
1,1050,715519
1,1051,715452
1,1052,715655
1,1053,715001
1,1054,715541
1,1055,715454
1,1056,715291
1,1057,716369
1,1058,716203
1,1059,716679
1,1060,717131
1,1061,718347
1,1062,718355
1,1063,720753
1,1064,722375
1,1065,724877
1,1066,728141
1,1067,731079
1,1068,734507
1,1069,737623
1,1070,740384
1,1071,742346
1,1072,743616
1,1073,742359
1,1074,739981
1,1075,736457
1,1076,732728
1,1077,726889
1,1078,722968
1,1079,717938
1,1080,713647
1,1081,711211
1,1082,708371
1,1083,705519
1,1084,704557
1,1085,702917
1,1086,701743
1,1087,701555
1,1088,699845
1,1089,699207
1,1090,698000
1,1091,697675
1,1092,697196
1,1093,696666
1,1094,695777
1,1095,695657
1,1096,694700
1,1097,695086
1,1098,694448
1,1099,693601
1,1100,692396
1,1101,692079
1,1102,691822
1,1103,692511
1,1104,690945
1,1105,690296
1,1106,690033
1,1107,689675
1,1108,688551
1,1109,688279
1,1110,689232
1,1111,689230
1,1112,687884
1,1113,687099
1,1114,686260
1,1115,685755
1,1116,685330
1,1117,685489
1,1118,684873
1,1119,683517
1,1120,684331
1,1121,683847
1,1122,683585
1,1123,683379
1,1124,683580
1,1125,682742
1,1126,681866
1,1127,681680
1,1128,681935
1,1129,681846
1,1130,681786
1,1131,681393
1,1132,680882
1,1133,680866
1,1134,681673
1,1135,681140
1,1136,681369
1,1137,681033
1,1138,680389
1,1139,679973
1,1140,679053
1,1141,678553
1,1142,678999
1,1143,677674
1,1144,676551
1,1145,675693
1,1146,675770
1,1147,673358
1,1148,672358
1,1149,671510
1,1150,670966
1,1151,670023
1,1152,668404
1,1153,668511
1,1154,667620
1,1155,666933
1,1156,666577
1,1157,665787
1,1158,665154
1,1159,665007
1,1160,664448
1,1161,663316
1,1162,662915
1,1163,662700
1,1164,662297
1,1165,661364
1,1166,660673
1,1167,660805
1,1168,659208
1,1169,659115
1,1170,658832
1,1171,658292
1,1172,657270
1,1173,657229
1,1174,656887
1,1175,656052
1,1176,655534
1,1177,655177
1,1178,654234
1,1179,653738
1,1180,653962
1,1181,652924
1,1182,652495
1,1183,652064
1,1184,652075
1,1185,650816
1,1186,650411
1,1187,649699
1,1188,649618
1,1189,649158
1,1190,647861
1,1191,647383
1,1192,647654
1,1193,647211
1,1194,646376
1,1195,645249
1,1196,645216
1,1197,645386
1,1198,644284
1,1199,644078
1,1200,642776
1,1201,642415
1,1202,642245
1,1203,642169
1,1204,641033
1,1205,640662
1,1206,639577
1,1207,639251
1,1208,639531
1,1209,638692
1,1210,638016
1,1211,637369
1,1212,637385
1,1213,636325
1,1214,635715
1,1215,634890
1,1216,635187
1,1217,634665
1,1218,633572
1,1219,633333
1,1220,632486
1,1221,632117
1,1222,631492
1,1223,630661
1,1224,629638
1,1225,629114
1,1226,628427
1,1227,627517
1,1228,626797
1,1229,626327
1,1230,625629
1,1231,624269
1,1232,623885
1,1233,622719
1,1234,621785
1,1235,621015
1,1236,619561
1,1237,618749
1,1238,617004
1,1239,615929
1,1240,615308
1,1241,614303
1,1242,613185
1,1243,612076
1,1244,610659
1,1245,609587
1,1246,608246
1,1247,607823
1,1248,606416
1,1249,605274
1,1250,604119
1,1251,602321
1,1252,601444
1,1253,600000
1,1254,598499
1,1255,596982
1,1256,595979
1,1257,595051
1,1258,592919
1,1259,592440
1,1260,590758
1,1261,589538
1,1262,588964
1,1263,587566
1,1264,586560
1,1265,584787
1,1266,583847
1,1267,582814
1,1268,581854
1,1269,579877
1,1270,578447
1,1271,576931
1,1272,575541
1,1273,574652
1,1274,572971
1,1275,571697
1,1276,570135
1,1277,568668
1,1278,567178
1,1279,565042
1,1280,563789
1,1281,562034
1,1282,559891
1,1283,558272
1,1284,556677
1,1285,554735
1,1286,553234
1,1287,551665
1,1288,549812
1,1289,548535
1,1290,546357
1,1291,544486
1,1292,542248
1,1293,541029
1,1294,538853
1,1295,537017
1,1296,535560
1,1297,533100
1,1298,531510
1,1299,529131
1,1300,527531
1,1301,525679
1,1302,523387
1,1303,521210
1,1304,519458
1,1305,517991
1,1306,515211
1,1307,513276
1,1308,511700
1,1309,508823
1,1310,507126
1,1311,505515
1,1312,503430
1,1313,501328
1,1314,499104
1,1315,497000
1,1316,495081
1,1317,492761
1,1318,491098
1,1319,488791
1,1320,487274
1,1321,484778
1,1322,482914
1,1323,480682
1,1324,478605
1,1325,476710
1,1326,475003
1,1327,472611
1,1328,470393
1,1329,468592
1,1330,466439
1,1331,464293
1,1332,462547
1,1333,460027
1,1334,457764
1,1335,456182
1,1336,453927
1,1337,451628
1,1338,449674
1,1339,445941
1,1340,485721
