1,1,64196
1,2,64290
1,3,64281
1,4,64150
1,5,64312
1,6,64280
1,7,64271
1,8,64382
1,9,64374
1,10,64307
1,11,64317
1,12,64368
1,13,64323
1,14,64441
1,15,64425
1,16,64331
1,17,64476
1,18,64503
1,19,64420
1,20,64511
1,21,64477
1,22,64405
1,23,64599
1,24,64577
1,25,64493
1,26,64682
1,27,64630
1,28,64653
1,29,64709
1,30,64698
1,31,64716
1,32,64662
1,33,64731
1,34,64726
1,35,64709
1,36,64766
1,37,64781
1,38,64748
1,39,64797
1,40,64841
1,41,64776
1,42,64901
1,43,64908
1,44,65023
1,45,64974
1,46,64951
1,47,64959
1,48,64973
1,49,65019
1,50,64930
1,51,65060
1,52,65028
1,53,65057
1,54,65166
1,55,65100
1,56,65125
1,57,65171
1,58,65378
1,59,65122
1,60,65221
1,61,65324
1,62,65335
1,63,65544
1,64,65433
1,65,65420
1,66,65562
1,67,65607
1,68,65507
1,69,65662
1,70,65721
1,71,65763
1,72,65734
1,73,65774
1,74,65872
1,75,65817
1,76,65655
1,77,65541
1,78,65427
1,79,65410
1,80,65399
1,81,65400
1,82,65208
1,83,65205
1,84,65112
1,85,65046
1,86,64912
1,87,64912
1,88,64905
1,89,64886
1,90,64804
1,91,64785
1,92,64814
1,93,64655
1,94,64611
1,95,64647
1,96,64571
1,97,64602
1,98,64483
1,99,64426
1,100,64448
1,101,64477
1,102,64451
1,103,64460
1,104,64537
1,105,64480
1,106,64690
1,107,64924
1,108,64964
1,109,65293
1,110,65749
1,111,66579
1,112,67954
1,113,70131
1,114,75532
1,115,83004
1,116,86880
1,117,91031
1,118,96818
1,119,98860
1,120,94675
1,121,90265
1,122,88545
1,123,84480
1,124,78362
1,125,74294
1,126,72612
1,127,70968
1,128,68930
1,129,68139
1,130,67912
1,131,67409
1,132,66725
1,133,66736
1,134,66721
1,135,66317
1,136,66097
1,137,65939
1,138,65688
1,139,65472
1,140,65416
1,141,65298
1,142,65017
1,143,65145
1,144,64905
1,145,64846
1,146,64788
1,147,64769
1,148,64661
1,149,64654
1,150,64645
1,151,64521
1,152,64515
1,153,64442
1,154,64477
1,155,64502
1,156,64398
1,157,64294
1,158,64385
1,159,64359
1,160,64235
1,161,64354
1,162,64353
1,163,64244
1,164,64331
1,165,64321
1,166,64239
1,167,64294
1,168,64258
1,169,64190
1,170,64343
1,171,64365
1,172,64202
1,173,64324
1,174,64315
1,175,64267
1,176,64372
1,177,64298
1,178,64310
1,179,64362
1,180,64313
1,181,64395
1,182,64492
1,183,64605
1,184,64666
1,185,64809
1,186,64965
1,187,65212
1,188,65480
1,189,66063
1,190,66614
1,191,67664
1,192,68945
1,193,71152
1,194,75051
1,195,79996
1,196,86906
1,197,98727
1,198,106837
1,199,110546
1,200,115759
1,201,118877
1,202,112432
1,203,106705
1,204,103248
1,205,94514
1,206,88034
1,207,83889
1,208,79865
1,209,76300
1,210,74371
1,211,72868
1,212,71349
1,213,70827
1,214,70282
1,215,69963
1,216,69608
1,217,69292
1,218,68988
1,219,68828
1,220,68818
1,221,68547
1,222,68471
1,223,68510
1,224,68518
1,225,68186
1,226,67951
1,227,67881
1,228,67841
1,229,67768
1,230,67688
1,231,67657
1,232,67698
1,233,67602
1,234,67691
1,235,67688
1,236,67763
1,237,67781
1,238,67832
1,239,67728
1,240,67680
1,241,67854
1,242,67838
1,243,67807
1,244,67938
1,245,67919
1,246,67974
1,247,67978
1,248,67981
1,249,68000
1,250,68225
1,251,68127
1,252,68078
1,253,68149
1,254,68192
1,255,68236
1,256,68371
1,257,68327
1,258,68326
1,259,68512
1,260,68364
1,261,68374
1,262,68500
1,263,68477
1,264,68498
1,265,68635
1,266,68566
1,267,68554
1,268,68714
1,269,68740
1,270,68689
1,271,68739
1,272,68901
1,273,68855
1,274,68993
1,275,69015
1,276,69028
1,277,69127
1,278,68995
1,279,69038
1,280,69222
1,281,69174
1,282,69234
1,283,69295
1,284,69443
1,285,69326
1,286,69317
1,287,69317
1,288,69389
1,289,69384
1,290,69406
1,291,69338
1,292,69397
1,293,69429
1,294,69451
1,295,69405
1,296,69539
1,297,69601
1,298,69678
1,299,69644
1,300,69562
1,301,69522
1,302,69684
1,303,69587
1,304,69551
1,305,70003
1,306,69594
1,307,69424
1,308,69700
1,309,69543
1,310,69634
1,311,69767
1,312,69677
1,313,69627
1,314,69864
1,315,69689
1,316,69649
1,317,69883
1,318,69874
1,319,69877
1,320,69940
1,321,69994
1,322,69850
1,323,69936
1,324,69875
1,325,69888
1,326,69886
1,327,69740
1,328,69614
1,329,69549
1,330,69539
1,331,69642
1,332,69576
1,333,69610
1,334,69668
1,335,69509
1,336,69494
1,337,69554
1,338,69585
1,339,69643
1,340,69619
1,341,69874
1,342,69837
1,343,69898
1,344,69843
1,345,70061
1,346,70169
1,347,70155
1,348,70468
1,349,70732
1,350,70838
1,351,71011
1,352,71119
1,353,71216
1,354,71198
1,355,71296
1,356,71207
1,357,71263
1,358,71267
1,359,71035
1,360,71016
1,361,71073
1,362,70690
1,363,70583
1,364,70580
1,365,70348
1,366,70352
1,367,70254
1,368,70043
1,369,70032
1,370,70010
1,371,69945
1,372,69984
1,373,69909
1,374,69871
1,375,69983
1,376,69986
1,377,69938
1,378,69965
1,379,69937
1,380,69958
1,381,70027
1,382,69995
1,383,70076
1,384,70089
1,385,70115
1,386,70136
1,387,70108
1,388,70278
1,389,70196
1,390,70149
1,391,70210
1,392,70220
1,393,70196
1,394,70244
1,395,70269
1,396,70194
1,397,70324
1,398,70189
1,399,70159
1,400,70354
1,401,70193
1,402,70144
1,403,70305
1,404,70276
1,405,70099
1,406,70311
1,407,70413
1,408,70435
1,409,70385
1,410,70347
1,411,70206
1,412,70376
1,413,70361
1,414,70341
1,415,70458
1,416,70479
1,417,70289
1,418,70360
1,419,70261
1,420,70311
1,421,70377
1,422,70356
1,423,70277
1,424,70471
1,425,70316
1,426,70266
1,427,70452
1,428,70307
1,429,70398
1,430,70415
1,431,70353
1,432,70373
1,433,70347
1,434,70458
1,435,70413
1,436,70486
1,437,70435
1,438,70466
1,439,70403
1,440,70630
1,441,70621
1,442,70439
1,443,70653
1,444,70576
1,445,70639
1,446,70683
1,447,70830
1,448,70755
1,449,70803
1,450,70997
1,451,70970
1,452,71039
1,453,71122
1,454,71126
1,455,71360
1,456,71260
1,457,71275
1,458,71302
1,459,71370
1,460,71253
1,461,71452
1,462,71314
1,463,71040
1,464,71132
1,465,71111
1,466,71008
1,467,71111
1,468,71013
1,469,70968
1,470,71188
1,471,71194
1,472,71003
1,473,70978
1,474,71072
1,475,70882
1,476,70920
1,477,71042
1,478,70898
1,479,71043
1,480,70901
1,481,70959
1,482,71051
1,483,70970
1,484,70810
1,485,70896
1,486,70863
1,487,70920
1,488,70892
1,489,70790
1,490,70825
1,491,70848
1,492,70930
1,493,70790
1,494,70896
1,495,70986
1,496,70891
1,497,70808
1,498,70959
1,499,70924
1,500,70811
1,501,70915
1,502,70985
1,503,70927
1,504,70975
1,505,70948
1,506,70853
1,507,71080
1,508,71262
1,509,70927
1,510,71228
1,511,71063
1,512,71066
1,513,71216
1,514,71274
1,515,71175
1,516,71291
1,517,71399
1,518,71210
1,519,71350
1,520,71386
1,521,71459
1,522,71678
1,523,71515
1,524,71414
1,525,71694
1,526,71704
1,527,71905
1,528,72195
1,529,72479
1,530,72621
1,531,72827
1,532,72929
1,533,73072
1,534,73201
1,535,73356
1,536,73522
1,537,73512
1,538,73573
1,539,73776
1,540,73524
1,541,73536
1,542,73271
1,543,73073
1,544,73114
1,545,73172
1,546,73329
1,547,73601
1,548,73944
1,549,74096
1,550,74442
1,551,74875
1,552,74862
1,553,75362
1,554,75409
1,555,75362
1,556,75322
1,557,75264
1,558,74973
1,559,74946
1,560,74608
1,561,74301
1,562,74363
1,563,74085
1,564,73934
1,565,73647
1,566,73487
1,567,73308
1,568,72998
1,569,72757
1,570,72459
1,571,72387
1,572,72195
1,573,71971
1,574,71930
1,575,71906
1,576,71936
1,577,71862
1,578,71729
1,579,71725
1,580,71823
1,581,71848
1,582,71854
1,583,72017
1,584,72089
1,585,72197
1,586,72337
1,587,72439
1,588,72565
1,589,72622
1,590,72614
1,591,72688
1,592,72720
1,593,72831
1,594,72876
1,595,72783
1,596,72982
1,597,73027
1,598,72974
1,599,72947
1,600,72935
1,601,72620
1,602,72713
1,603,72381
1,604,72140
1,605,72117
1,606,71968
1,607,71925
1,608,71973
1,609,71927
1,610,71884
1,611,71812
1,612,71776
1,613,71864
1,614,72078
1,615,71860
1,616,71962
1,617,72001
1,618,71938
1,619,72049
1,620,72212
1,621,72192
1,622,72257
1,623,72356
1,624,72478
1,625,72423
1,626,72522
1,627,72563
1,628,72615
1,629,72658
1,630,72614
1,631,72528
1,632,72572
1,633,72420
1,634,72525
1,635,72391
1,636,72343
1,637,72325
1,638,72230
1,639,72271
1,640,72170
1,641,72095
1,642,72244
1,643,72211
1,644,72072
1,645,72274
1,646,72169
1,647,72215
1,648,72249
1,649,72302
1,650,72164
1,651,72527
1,652,72440
1,653,72696
1,654,72769
1,655,72877
1,656,72887
1,657,73186
1,658,73177
1,659,73476
1,660,73719
1,661,73968
1,662,74171
1,663,74509
1,664,74636
1,665,74774
1,666,75115
1,667,75270
1,668,75342
1,669,75691
1,670,75926
1,671,75811
1,672,76010
1,673,76062
1,674,76002
1,675,76181
1,676,75976
1,677,75986
1,678,76038
1,679,75969
1,680,75829
1,681,76273
1,682,75528
1,683,75470
1,684,75248
1,685,75161
1,686,74999
1,687,74883
1,688,74677
1,689,74804
1,690,74469
1,691,74690
1,692,74629
1,693,74457
1,694,74522
1,695,74484
1,696,74400
1,697,74488
1,698,74431
1,699,74373
1,700,74465
1,701,74356
1,702,74294
1,703,74478
1,704,74568
1,705,74569
1,706,74678
1,707,74650
1,708,74639
1,709,74768
1,710,74601
1,711,74600
1,712,74500
1,713,74343
1,714,74099
1,715,74101
1,716,73728
1,717,73521
1,718,73248
1,719,73241
1,720,72989
1,721,72937
1,722,72797
1,723,72710
1,724,72788
1,725,72638
1,726,72573
1,727,72583
1,728,72495
1,729,72524
1,730,72651
1,731,72572
1,732,72578
1,733,72504
1,734,72475
1,735,72538
1,736,72589
1,737,72526
1,738,72445
1,739,72530
1,740,72565
1,741,72648
1,742,72471
1,743,72517
1,744,72637
1,745,72617
1,746,72695
1,747,72634
1,748,72507
1,749,72727
1,750,72885
1,751,72706
1,752,72752
1,753,72796
1,754,72744
1,755,72864
1,756,72959
1,757,72841
1,758,72962
1,759,72987
1,760,72905
1,761,73061
1,762,73128
1,763,72964
1,764,73210
1,765,73219
1,766,73267
1,767,73280
1,768,73315
1,769,73404
1,770,73317
1,771,73448
1,772,73295
1,773,73531
1,774,73489
1,775,73434
1,776,73468
1,777,73566
1,778,73398
1,779,73638
1,780,73588
1,781,73543
1,782,73710
1,783,73642
1,784,73874
1,785,73816
1,786,73872
1,787,73882
1,788,73896
1,789,73954
1,790,74097
1,791,74016
1,792,74167
1,793,74309
1,794,74136
1,795,74212
1,796,74277
1,797,74224
1,798,74387
1,799,74262
1,800,74263
1,801,74330
1,802,74295
1,803,74225
1,804,74326
1,805,74103
1,806,74129
1,807,74209
1,808,74160
1,809,74085
1,810,74096
1,811,74258
1,812,74007
1,813,74080
1,814,74128
1,815,74026
1,816,73928
1,817,73992
1,818,73868
1,819,73907
1,820,73984
1,821,73928
1,822,73880
1,823,73803
1,824,73811
1,825,73965
1,826,73774
1,827,73802
1,828,73801
1,829,73841
1,830,73859
1,831,73891
1,832,73969
1,833,73908
1,834,73826
1,835,73918
1,836,74083
1,837,73938
1,838,74049
1,839,73983
1,840,74010
1,841,73945
1,842,73976
1,843,73945
1,844,73942
1,845,74022
1,846,73739
1,847,73875
1,848,73783
1,849,73782
1,850,73926
1,851,73821
1,852,73753
1,853,74000
1,854,73695
1,855,73734
1,856,73913
1,857,73838
1,858,73749
1,859,73964
1,860,73941
1,861,73840
1,862,73858
1,863,73780
1,864,73789
1,865,73876
1,866,73893
1,867,73769
1,868,73852
1,869,73903
1,870,74138
1,871,74034
1,872,73947
1,873,73827
1,874,73921
1,875,73963
1,876,73836
1,877,73864
1,878,73862
1,879,73803
1,880,73991
1,881,73976
1,882,73960
1,883,73981
1,884,73932
1,885,73871
1,886,73901
1,887,73897
1,888,73857
1,889,73864
1,890,73838
1,891,73820
1,892,73866
1,893,73877
1,894,73927
1,895,73790
1,896,73760
1,897,73708
1,898,73692
1,899,73810
1,900,73786
1,901,73763
1,902,73809
1,903,73870
1,904,73636
1,905,73792
1,906,73812
1,907,73720
1,908,73893
1,909,73993
1,910,73765
1,911,73979
1,912,74072
1,913,73942
1,914,73894
1,915,73996
1,916,73841
1,917,74001
1,918,74044
1,919,74005
1,920,74263
1,921,74134
1,922,74223
1,923,74372
1,924,74384
1,925,74557
1,926,74845
1,927,75163
1,928,75231
1,929,75585
1,930,75891
1,931,76201
1,932,76356
1,933,76429
1,934,76466
1,935,76741
1,936,76888
1,937,76684
1,938,76670
1,939,76579
1,940,76413
1,941,76319
1,942,76085
1,943,75881
1,944,75638
1,945,75440
1,946,75045
1,947,74808
1,948,74520
1,949,74305
1,950,74035
1,951,74036
1,952,73802
1,953,73562
1,954,73515
1,955,73565
1,956,73159
1,957,73399
1,958,73389
1,959,73132
1,960,73115
1,961,73095
1,962,73051
1,963,73232
1,964,73135
1,965,72969
1,966,73045
1,967,73127
1,968,72978
1,969,72980
1,970,73012
1,971,73054
1,972,73164
1,973,73045
1,974,73104
1,975,73135
1,976,73128
1,977,72948
1,978,73066
1,979,72991
1,980,72994
1,981,73041
1,982,72975
1,983,72968
1,984,72879
1,985,72882
1,986,72913
1,987,72968
1,988,72964
1,989,73036
1,990,73006
1,991,72986
1,992,73035
1,993,72777
1,994,72886
1,995,72859
1,996,72759
1,997,72927
1,998,72831
1,999,72816
1,1000,72885
1,1001,72903
1,1002,72861
1,1003,72923
1,1004,72846
1,1005,72805
1,1006,72893
1,1007,73034
1,1008,72912
1,1009,72989
1,1010,72867
1,1011,72879
1,1012,72864
1,1013,72867
1,1014,72787
1,1015,73076
1,1016,73063
1,1017,73177
1,1018,73139
1,1019,73116
1,1020,72917
1,1021,72988
1,1022,72943
1,1023,72856
1,1024,72812
1,1025,72873
1,1026,72810
1,1027,72906
1,1028,72943
1,1029,72954
1,1030,72907
1,1031,72853
1,1032,72800
1,1033,72880
1,1034,72967
1,1035,72829
1,1036,72862
1,1037,72883
1,1038,72980
1,1039,72905
1,1040,72850
1,1041,72875
1,1042,72767
1,1043,72865
1,1044,72957
1,1045,72905
1,1046,72892
1,1047,72876
1,1048,72742
1,1049,72939
1,1050,72968
1,1051,72887
1,1052,73036
1,1053,72881
1,1054,72833
1,1055,72953
1,1056,72887
1,1057,72935
1,1058,72849
1,1059,72859
1,1060,72745
1,1061,72981
1,1062,72886
1,1063,72965
1,1064,73010
1,1065,73019
1,1066,73059
1,1067,73054
1,1068,73068
1,1069,72903
1,1070,72938
1,1071,72867
1,1072,72716
1,1073,72927
1,1074,72905
1,1075,72859
1,1076,72766
1,1077,72714
1,1078,72730
1,1079,72834
1,1080,72715
1,1081,72712
1,1082,72791
1,1083,72786
1,1084,72799
1,1085,72666
1,1086,72648
1,1087,72732
1,1088,72591
1,1089,72741
1,1090,72602
1,1091,72595
1,1092,72687
1,1093,72661
1,1094,72681
1,1095,72754
1,1096,72602
1,1097,72535
1,1098,72682
1,1099,72670
1,1100,72582
1,1101,72734
1,1102,72724
1,1103,72775
1,1104,72687
1,1105,72700
1,1106,72549
1,1107,72714
1,1108,72752
1,1109,72549
1,1110,72604
1,1111,72572
1,1112,72480
1,1113,72544
1,1114,72620
1,1115,72582
1,1116,72586
1,1117,72605
1,1118,72574
1,1119,72588
1,1120,72687
1,1121,72522
1,1122,72682
1,1123,72714
1,1124,72721
1,1125,72686
1,1126,72615
1,1127,72575
1,1128,72684
1,1129,72595
1,1130,72736
1,1131,72563
1,1132,72578
1,1133,72444
1,1134,72658
1,1135,72573
1,1136,72492
1,1137,72558
1,1138,72464
1,1139,72589
1,1140,72422
1,1141,72482
1,1142,72579
1,1143,72405
1,1144,72528
1,1145,72415
1,1146,72779
1,1147,72463
1,1148,72401
1,1149,72351
1,1150,72410
1,1151,72331
1,1152,72278
1,1153,72338
1,1154,72326
1,1155,72325
1,1156,72337
1,1157,72228
1,1158,72217
1,1159,72354
1,1160,72206
1,1161,72177
1,1162,72273
1,1163,72196
1,1164,72267
1,1165,72364
1,1166,72277
1,1167,72155
1,1168,72118
1,1169,72224
1,1170,72084
1,1171,72171
1,1172,72026
1,1173,72125
1,1174,72094
1,1175,72103
1,1176,72027
1,1177,72135
1,1178,72073
1,1179,72029
1,1180,72071
1,1181,72097
1,1182,72081
1,1183,72241
1,1184,71952
1,1185,71924
1,1186,72015
1,1187,72005
1,1188,72055
1,1189,71994
1,1190,71980
1,1191,71954
1,1192,72057
1,1193,72094
1,1194,71988
1,1195,71843
1,1196,72005
1,1197,72028
1,1198,71917
1,1199,72042
1,1200,71909
1,1201,71860
1,1202,71946
1,1203,71874
1,1204,71758
1,1205,71913
1,1206,71888
1,1207,71823
1,1208,71940
1,1209,71824
1,1210,71766
1,1211,71882
1,1212,71957
1,1213,71754
1,1214,71812
1,1215,71786
1,1216,71689
1,1217,71883
1,1218,71792
1,1219,71880
1,1220,71811
1,1221,71732
1,1222,71760
1,1223,71912
1,1224,71696
1,1225,71690
1,1226,71770
1,1227,71723
1,1228,71535
1,1229,71699
1,1230,71686
1,1231,71656
1,1232,71717
1,1233,71712
1,1234,71568
1,1235,71517
1,1236,71770
1,1237,71650
1,1238,71383
1,1239,71511
1,1240,71573
1,1241,71424
1,1242,71604
1,1243,72004
1,1244,71543
1,1245,71502
1,1246,71359
1,1247,71357
1,1248,71445
1,1249,71459
1,1250,71193
1,1251,71434
1,1252,71290
1,1253,71478
1,1254,71334
1,1255,71249
1,1256,71072
1,1257,71299
1,1258,71224
1,1259,71119
1,1260,71171
1,1261,71058
1,1262,71110
1,1263,71049
1,1264,71024
1,1265,70950
1,1266,71045
1,1267,70886
1,1268,70915
1,1269,70976
1,1270,70871
1,1271,70841
1,1272,70753
1,1273,70726
1,1274,70772
1,1275,70675
1,1276,70714
1,1277,70757
1,1278,70644
1,1279,70613
1,1280,70680
1,1281,70652
1,1282,70441
1,1283,70505
1,1284,70494
1,1285,70391
1,1286,70345
1,1287,70295
1,1288,70347
1,1289,70293
1,1290,70281
1,1291,70236
1,1292,70132
1,1293,70062
1,1294,70018
1,1295,70014
1,1296,69980
1,1297,69968
1,1298,69962
1,1299,69868
1,1300,69866
1,1301,69757
1,1302,69736
1,1303,69817
1,1304,69850
1,1305,69767
1,1306,69722
1,1307,69511
1,1308,69483
1,1309,69532
1,1310,69411
1,1311,69435
1,1312,69509
1,1313,69380
1,1314,69164
1,1315,69414
1,1316,69297
1,1317,69183
1,1318,69229
1,1319,69131
1,1320,69101
1,1321,69110
1,1322,68999
1,1323,68923
1,1324,68925
1,1325,68916
1,1326,68875
1,1327,68753
1,1328,68702
1,1329,68748
1,1330,68703
1,1331,68574
1,1332,68658
1,1333,68468
1,1334,68503
1,1335,68310
1,1336,68358
1,1337,68366
1,1338,68246
1,1339,67868
1,1340,76438
