1,1,64640
1,2,64610
1,3,64681
1,4,64688
1,5,64724
1,6,64698
1,7,64725
1,8,64699
1,9,64767
1,10,64763
1,11,64734
1,12,64791
1,13,64779
1,14,64823
1,15,64827
1,16,64844
1,17,64843
1,18,64885
1,19,64885
1,20,64849
1,21,64970
1,22,64922
1,23,64983
1,24,64972
1,25,65015
1,26,65012
1,27,64999
1,28,65090
1,29,65044
1,30,65047
1,31,65081
1,32,65117
1,33,65032
1,34,65063
1,35,65098
1,36,65126
1,37,65166
1,38,65200
1,39,65190
1,40,65195
1,41,65259
1,42,65243
1,43,65325
1,44,65297
1,45,65286
1,46,65387
1,47,65382
1,48,65350
1,49,65375
1,50,65396
1,51,65376
1,52,65469
1,53,65464
1,54,65424
1,55,65456
1,56,65487
1,57,65552
1,58,65523
1,59,65539
1,60,65571
1,61,65613
1,62,65675
1,63,65668
1,64,65640
1,65,65628
1,66,65706
1,67,65752
1,68,65738
1,69,65732
1,70,65712
1,71,65708
1,72,65696
1,73,65714
1,74,65688
1,75,65694
1,76,65562
1,77,65591
1,78,65520
1,79,65516
1,80,65431
1,81,65377
1,82,65320
1,83,65289
1,84,65181
1,85,65162
1,86,65023
1,87,65015
1,88,64960
1,89,64910
1,90,64862
1,91,64772
1,92,64741
1,93,64671
1,94,64607
1,95,64562
1,96,64595
1,97,64525
1,98,64476
1,99,64406
1,100,64429
1,101,64381
1,102,64340
1,103,64306
1,104,64305
1,105,64303
1,106,64266
1,107,64257
1,108,64298
1,109,64289
1,110,64211
1,111,64332
1,112,64402
1,113,64482
1,114,64787
1,115,65157
1,116,65516
1,117,65607
1,118,65989
1,119,66174
1,120,65973
1,121,65736
1,122,65704
1,123,65442
1,124,65069
1,125,64822
1,126,64709
1,127,64633
1,128,64497
1,129,64444
1,130,64406
1,131,64364
1,132,64319
1,133,64362
1,134,64324
1,135,64340
1,136,64305
1,137,64278
1,138,64300
1,139,64264
1,140,64303
1,141,64285
1,142,64288
1,143,64277
1,144,64232
1,145,64225
1,146,64273
1,147,64271
1,148,64274
1,149,64193
1,150,64204
1,151,64223
1,152,64240
1,153,64212
1,154,64210
1,155,64287
1,156,64211
1,157,64233
1,158,64260
1,159,64233
1,160,64267
1,161,64237
1,162,64222
1,163,64229
1,164,64232
1,165,64252
1,166,64234
1,167,64227
1,168,64231
1,169,64226
1,170,64219
1,171,64256
1,172,64258
1,173,64274
1,174,64277
1,175,64259
1,176,64294
1,177,64265
1,178,64266
1,179,64326
1,180,64274
1,181,64310
1,182,64313
1,183,64324
1,184,64337
1,185,64318
1,186,64354
1,187,64343
1,188,64376
1,189,64448
1,190,64448
1,191,64524
1,192,64607
1,193,64649
1,194,64821
1,195,64991
1,196,65278
1,197,65660
1,198,66028
1,199,66336
1,200,66502
1,201,66631
1,202,66493
1,203,66397
1,204,66305
1,205,66120
1,206,66011
1,207,65922
1,208,65793
1,209,65732
1,210,65810
1,211,65879
1,212,65904
1,213,66009
1,214,66148
1,215,66295
1,216,66319
1,217,66487
1,218,66665
1,219,66775
1,220,66964
1,221,67094
1,222,67196
1,223,67330
1,224,67437
1,225,67552
1,226,67666
1,227,67773
1,228,67956
1,229,68143
1,230,68377
1,231,68439
1,232,68559
1,233,68623
1,234,68753
1,235,68829
1,236,68962
1,237,69103
1,238,69240
1,239,69371
1,240,69596
1,241,69630
1,242,69689
1,243,69815
1,244,69856
1,245,69908
1,246,70102
1,247,70232
1,248,70343
1,249,70432
1,250,70604
1,251,70795
1,252,70786
1,253,70814
1,254,70861
1,255,70982
1,256,71092
1,257,71233
1,258,71452
1,259,71672
1,260,71771
1,261,71805
1,262,71997
1,263,72001
1,264,71987
1,265,72116
1,266,72163
1,267,72307
1,268,72462
1,269,72591
1,270,72667
1,271,72790
1,272,72894
1,273,72934
1,274,72960
1,275,73017
1,276,73159
1,277,73292
1,278,73324
1,279,73379
1,280,73406
1,281,73563
1,282,73569
1,283,73609
1,284,73610
1,285,73754
1,286,73775
1,287,73789
1,288,73899
1,289,73835
1,290,74040
1,291,74126
1,292,74257
1,293,74365
1,294,74389
1,295,74356
1,296,74538
1,297,74565
1,298,74758
1,299,74834
1,300,74862
1,301,74832
1,302,75093
1,303,75103
1,304,75313
1,305,75384
1,306,75410
1,307,75567
1,308,75556
1,309,75645
1,310,75791
1,311,76019
1,312,76015
1,313,76135
1,314,76255
1,315,76181
1,316,76228
1,317,76402
1,318,76534
1,319,76803
1,320,76869
1,321,76830
1,322,77098
1,323,77115
1,324,77213
1,325,77325
1,326,77539
1,327,77587
1,328,77644
1,329,77949
1,330,77958
1,331,77985
1,332,78189
1,333,78258
1,334,78204
1,335,78628
1,336,78655
1,337,78789
1,338,78948
1,339,79058
1,340,79213
1,341,79275
1,342,79525
1,343,79777
1,344,79849
1,345,79897
1,346,80093
1,347,80231
1,348,80384
1,349,80565
1,350,80580
1,351,80798
1,352,80976
1,353,81340
1,354,81412
1,355,81597
1,356,81676
1,357,81915
1,358,82088
1,359,82404
1,360,82435
1,361,82481
1,362,82779
1,363,82879
1,364,83178
1,365,83448
1,366,83565
1,367,83785
1,368,84088
1,369,84271
1,370,84606
1,371,84714
1,372,84987
1,373,85357
1,374,85527
1,375,85800
1,376,85987
1,377,86224
1,378,86508
1,379,86762
1,380,86796
1,381,87095
1,382,87259
1,383,87697
1,384,88148
1,385,88221
1,386,88615
1,387,88729
1,388,89135
1,389,89263
1,390,89760
1,391,90099
1,392,90154
1,393,90599
1,394,90839
1,395,91361
1,396,91622
1,397,92042
1,398,92327
1,399,92719
1,400,93052
1,401,93345
1,402,93694
1,403,94211
1,404,94398
1,405,94804
1,406,95220
1,407,95663
1,408,96190
1,409,96564
1,410,96863
1,411,97331
1,412,97703
1,413,98154
1,414,98641
1,415,99094
1,416,99409
1,417,100132
1,418,100393
1,419,101072
1,420,101524
1,421,101840
1,422,102443
1,423,103016
1,424,103556
1,425,104060
1,426,104607
1,427,105254
1,428,105607
1,429,106509
1,430,106859
1,431,107423
1,432,108163
1,433,108711
1,434,109260
1,435,109882
1,436,110701
1,437,111106
1,438,111658
1,439,112280
1,440,113094
1,441,113824
1,442,114424
1,443,115275
1,444,116051
1,445,116513
1,446,117411
1,447,118134
1,448,118866
1,449,119547
1,450,120411
1,451,121117
1,452,122027
1,453,122852
1,454,123750
1,455,124622
1,456,125489
1,457,126348
1,458,127307
1,459,128291
1,460,129106
1,461,129880
1,462,131023
1,463,131877
1,464,132903
1,465,133732
1,466,134871
1,467,135889
1,468,136920
1,469,138036
1,470,139125
1,471,140024
1,472,141350
1,473,142427
1,474,143551
1,475,144734
1,476,145949
1,477,147011
1,478,148496
1,479,149482
1,480,150603
1,481,151957
1,482,153122
1,483,154362
1,484,155760
1,485,156939
1,486,158324
1,487,159728
1,488,160882
1,489,162238
1,490,163715
1,491,165159
1,492,166738
1,493,168138
1,494,169625
1,495,171080
1,496,172800
1,497,173952
1,498,175859
1,499,177414
1,500,178901
1,501,180649
1,502,182352
1,503,183874
1,504,185593
1,505,186934
1,506,188918
1,507,190699
1,508,192416
1,509,194057
1,510,195675
1,511,197733
1,512,199350
1,513,201116
1,514,203164
1,515,204604
1,516,206960
1,517,208382
1,518,210587
1,519,211883
1,520,214339
1,521,216228
1,522,218320
1,523,220368
1,524,222618
1,525,224226
1,526,226327
1,527,228207
1,528,230254
1,529,232808
1,530,234751
1,531,236859
1,532,238918
1,533,240859
1,534,243370
1,535,245324
1,536,247876
1,537,249802
1,538,252090
1,539,254230
1,540,256550
1,541,258747
1,542,260765
1,543,262945
1,544,265029
1,545,267674
1,546,269884
1,547,271994
1,548,274348
1,549,276819
1,550,279377
1,551,280991
1,552,283658
1,553,286069
1,554,288875
1,555,290440
1,556,293510
1,557,295498
1,558,298227
1,559,300277
1,560,302806
1,561,305202
1,562,307912
1,563,309814
1,564,312055
1,565,314570
1,566,316818
1,567,318574
1,568,321737
1,569,323646
1,570,326122
1,571,328152
1,572,330667
1,573,332943
1,574,335828
1,575,337855
1,576,340199
1,577,342495
1,578,344742
1,579,346496
1,580,349164
1,581,351463
1,582,354170
1,583,356282
1,584,357910
1,585,360387
1,586,362332
1,587,364851
1,588,367709
1,589,368835
1,590,370847
1,591,372689
1,592,375281
1,593,377206
1,594,379140
1,595,381778
1,596,384062
1,597,385563
1,598,386847
1,599,388930
1,600,391320
1,601,393173
1,602,394655
1,603,396302
1,604,398772
1,605,400430
1,606,401852
1,607,403101
1,608,405469
1,609,406763
1,610,408393
1,611,410235
1,612,411427
1,613,412412
1,614,414298
1,615,415465
1,616,417633
1,617,418419
1,618,420018
1,619,421585
1,620,422194
1,621,423631
1,622,425008
1,623,426327
1,624,426400
1,625,429159
1,626,429425
1,627,430717
1,628,431551
1,629,432365
1,630,433247
1,631,434253
1,632,435535
1,633,436117
1,634,437309
1,635,437767
1,636,438004
1,637,438678
1,638,439314
1,639,439859
1,640,440416
1,641,441085
1,642,440770
1,643,441773
1,644,442315
1,645,442133
1,646,442531
1,647,442981
1,648,443296
1,649,443135
1,650,443779
1,651,443677
1,652,444218
1,653,444046
1,654,443985
1,655,443710
1,656,443340
1,657,443524
1,658,443264
1,659,442747
1,660,442189
1,661,442062
1,662,441323
1,663,441464
1,664,441603
1,665,440642
1,666,439876
1,667,440133
1,668,438549
1,669,437896
1,670,437548
1,671,436951
1,672,435959
1,673,435715
1,674,435238
1,675,433643
1,676,432955
1,677,432070
1,678,431265
1,679,430738
1,680,429189
1,681,428490
1,682,427310
1,683,426624
1,684,424959
1,685,424617
1,686,422285
1,687,421908
1,688,420693
1,689,419712
1,690,418020
1,691,416817
1,692,415086
1,693,413316
1,694,412112
1,695,411013
1,696,409679
1,697,408541
1,698,406795
1,699,404865
1,700,404017
1,701,402254
1,702,400356
1,703,399720
1,704,397846
1,705,396085
1,706,394237
1,707,392864
1,708,391107
1,709,389975
1,710,388124
1,711,386050
1,712,384559
1,713,382919
1,714,381331
1,715,379433
1,716,378090
1,717,376127
1,718,373964
1,719,372101
1,720,370883
1,721,368719
1,722,367051
1,723,365371
1,724,363609
1,725,362003
1,726,360616
1,727,358517
1,728,356618
1,729,355147
1,730,352917
1,731,351284
1,732,349770
1,733,347219
1,734,346503
1,735,344929
1,736,341940
1,737,340527
1,738,338920
1,739,337336
1,740,335286
1,741,333161
1,742,331850
1,743,329759
1,744,328057
1,745,326366
1,746,324752
1,747,322490
1,748,320447
1,749,319046
1,750,317306
1,751,315612
1,752,314545
1,753,312415
1,754,311298
1,755,308990
1,756,307538
1,757,305752
1,758,304023
1,759,302225
1,760,300825
1,761,299234
1,762,297493
1,763,296026
1,764,294572
1,765,292991
1,766,290924
1,767,289441
1,768,287848
1,769,285993
1,770,284555
1,771,283057
1,772,282085
1,773,280167
1,774,278331
1,775,276883
1,776,275500
1,777,273954
1,778,273125
1,779,271295
1,780,269578
1,781,267608
1,782,266977
1,783,265607
1,784,264161
1,785,262314
1,786,260963
1,787,259580
1,788,258292
1,789,257322
1,790,255569
1,791,254435
1,792,253061
1,793,251854
1,794,250075
1,795,249097
1,796,247521
1,797,246470
1,798,245260
1,799,244398
1,800,243278
1,801,241457
1,802,240200
1,803,239355
1,804,238102
1,805,236620
1,806,235997
1,807,234624
1,808,232992
1,809,232159
1,810,231043
1,811,229914
1,812,228682
1,813,227849
1,814,226507
1,815,225854
1,816,224331
1,817,223355
1,818,222464
1,819,221227
1,820,219847
1,821,219235
1,822,218075
1,823,217184
1,824,216592
1,825,215124
1,826,214573
1,827,213457
1,828,212680
1,829,211564
1,830,210562
1,831,209744
1,832,208820
1,833,207910
1,834,206665
1,835,206079
1,836,205430
1,837,204041
1,838,203057
1,839,202765
1,840,201808
1,841,200774
1,842,199913
1,843,199143
1,844,198177
1,845,197398
1,846,196444
1,847,195622
1,848,194853
1,849,194416
1,850,193480
1,851,192908
1,852,192255
1,853,191045
1,854,190499
1,855,189496
1,856,189014
1,857,188311
1,858,187776
1,859,186882
1,860,186314
1,861,185699
1,862,184444
1,863,184306
1,864,183362
1,865,183025
1,866,182345
1,867,181415
1,868,181040
1,869,179924
1,870,179836
1,871,179067
1,872,178085
1,873,177668
1,874,177274
1,875,176601
1,876,175610
1,877,175344
1,878,174888
1,879,173871
1,880,173452
1,881,173170
1,882,172289
1,883,171595
1,884,171144
1,885,171073
1,886,170218
1,887,169805
1,888,169189
1,889,168654
1,890,168382
1,891,167736
1,892,167261
1,893,166557
1,894,166133
1,895,165520
1,896,165006
1,897,164445
1,898,164076
1,899,163644
1,900,163545
1,901,162856
1,902,162614
1,903,162087
1,904,161299
1,905,160952
1,906,160802
1,907,160408
1,908,159847
1,909,159583
1,910,159114
1,911,158736
1,912,158318
1,913,158040
1,914,157557
1,915,157552
1,916,156975
1,917,156637
1,918,156631
1,919,155865
1,920,155370
1,921,155337
1,922,154830
1,923,154511
1,924,153832
1,925,153340
1,926,153215
1,927,152801
1,928,152700
1,929,152589
1,930,151859
1,931,151470
1,932,151377
1,933,150988
1,934,150424
1,935,150159
1,936,149844
1,937,149682
1,938,149270
1,939,148935
1,940,148472
1,941,148278
1,942,148068
1,943,148019
1,944,147403
1,945,147165
1,946,146722
1,947,146696
1,948,146232
1,949,146179
1,950,145724
1,951,145688
1,952,145391
1,953,145162
1,954,144833
1,955,144728
1,956,144538
1,957,143938
1,958,143752
1,959,143394
1,960,143343
1,961,143312
1,962,142975
1,963,142422
1,964,142558
1,965,142173
1,966,142068
1,967,141713
1,968,141665
1,969,141219
1,970,140891
1,971,140901
1,972,141030
1,973,140678
1,974,140283
1,975,140355
1,976,139944
1,977,140248
1,978,139863
1,979,139487
1,980,139280
1,981,139158
1,982,138931
1,983,139036
1,984,138745
1,985,138761
1,986,138600
1,987,138172
1,988,138042
1,989,137991
1,990,137846
1,991,137544
1,992,137666
1,993,137425
1,994,137427
1,995,137412
1,996,137224
1,997,136925
1,998,136802
1,999,136645
1,1000,136268
1,1001,136450
1,1002,136247
1,1003,136193
1,1004,136168
1,1005,135831
1,1006,135926
1,1007,135416
1,1008,135775
1,1009,135164
1,1010,135138
1,1011,135251
1,1012,134923
1,1013,134989
1,1014,134932
1,1015,134595
1,1016,134624
1,1017,134449
1,1018,134577
1,1019,134199
1,1020,134231
1,1021,134091
1,1022,134089
1,1023,134001
1,1024,133728
1,1025,133678
1,1026,133618
1,1027,133391
1,1028,133359
1,1029,133269
1,1030,133180
1,1031,133056
1,1032,133002
1,1033,132743
1,1034,132752
1,1035,132707
1,1036,132555
1,1037,132715
1,1038,132157
1,1039,132233
1,1040,132091
1,1041,132066
1,1042,132310
1,1043,131894
1,1044,132041
1,1045,131784
1,1046,131897
1,1047,131616
1,1048,131726
1,1049,131513
1,1050,131267
1,1051,131735
1,1052,131363
1,1053,131189
1,1054,131234
1,1055,131091
1,1056,131061
1,1057,130998
1,1058,130847
1,1059,130754
1,1060,130657
1,1061,130855
1,1062,130641
1,1063,130683
1,1064,130338
1,1065,130626
1,1066,130637
1,1067,130390
1,1068,130454
1,1069,130584
1,1070,130154
1,1071,130075
1,1072,130301
1,1073,130190
1,1074,130003
1,1075,129841
1,1076,130003
1,1077,129851
1,1078,129451
1,1079,129719
1,1080,128891
1,1081,129292
1,1082,129482
1,1083,129535
1,1084,128835
1,1085,128989
1,1086,128995
1,1087,129016
1,1088,128529
1,1089,128489
1,1090,128531
1,1091,128360
1,1092,128434
1,1093,128313
1,1094,128176
1,1095,128195
1,1096,128175
1,1097,128042
1,1098,128221
1,1099,128116
1,1100,127930
1,1101,127635
1,1102,127723
1,1103,127729
1,1104,127581
1,1105,127494
1,1106,127585
1,1107,127511
1,1108,127504
1,1109,127232
1,1110,127576
1,1111,127167
1,1112,127186
1,1113,126954
1,1114,127003
1,1115,127132
1,1116,126922
1,1117,126787
1,1118,126818
1,1119,126867
1,1120,126891
1,1121,126650
1,1122,126752
1,1123,126516
1,1124,126404
1,1125,126403
1,1126,126464
1,1127,126369
1,1128,126289
1,1129,126252
1,1130,126209
1,1131,126097
1,1132,126175
1,1133,125942
1,1134,126141
1,1135,125929
1,1136,125972
1,1137,125653
1,1138,125899
1,1139,125740
1,1140,125617
1,1141,125772
1,1142,125522
1,1143,125542
1,1144,125858
1,1145,125579
1,1146,125489
1,1147,125261
1,1148,125144
1,1149,125147
1,1150,125188
1,1151,125032
1,1152,125054
1,1153,125131
1,1154,124956
1,1155,124730
1,1156,124872
1,1157,124625
1,1158,124717
1,1159,124451
1,1160,124628
1,1161,124384
1,1162,124372
1,1163,124517
1,1164,124274
1,1165,124124
1,1166,124365
1,1167,124144
1,1168,124306
1,1169,124118
1,1170,124095
1,1171,123982
1,1172,123848
1,1173,123911
1,1174,123763
1,1175,123940
1,1176,123871
1,1177,123681
1,1178,123643
1,1179,123663
1,1180,123664
1,1181,123748
1,1182,123276
1,1183,123386
1,1184,123575
1,1185,123134
1,1186,123510
1,1187,123330
1,1188,123310
1,1189,123172
1,1190,123030
1,1191,123039
1,1192,122977
1,1193,122744
1,1194,122929
1,1195,123050
1,1196,122629
1,1197,122700
1,1198,122637
1,1199,122509
1,1200,122445
1,1201,122571
1,1202,122300
1,1203,122617
1,1204,122403
1,1205,122434
1,1206,122303
1,1207,122213
1,1208,122233
1,1209,122082
1,1210,122178
1,1211,122233
1,1212,122039
1,1213,122171
1,1214,122125
1,1215,121998
1,1216,121814
1,1217,121950
1,1218,121688
1,1219,121793
1,1220,121730
1,1221,121808
1,1222,121449
1,1223,121672
1,1224,121354
1,1225,121439
1,1226,121231
1,1227,121271
1,1228,121002
1,1229,121103
1,1230,120971
1,1231,120701
1,1232,120451
1,1233,120551
1,1234,120414
1,1235,120283
1,1236,119990
1,1237,119867
1,1238,119603
1,1239,119645
1,1240,119554
1,1241,119478
1,1242,118998
1,1243,118767
1,1244,118813
1,1245,118727
1,1246,118482
1,1247,118328
1,1248,118019
1,1249,117718
1,1250,117625
1,1251,117482
1,1252,117263
1,1253,117048
1,1254,116706
1,1255,116721
1,1256,116127
1,1257,116143
1,1258,116219
1,1259,115930
1,1260,115407
1,1261,115363
1,1262,115203
1,1263,114955
1,1264,114750
1,1265,114545
1,1266,114323
1,1267,114097
1,1268,114200
1,1269,113767
1,1270,113505
1,1271,113270
1,1272,113119
1,1273,112649
1,1274,112369
1,1275,112300
1,1276,111905
1,1277,111747
1,1278,111251
1,1279,111197
1,1280,110850
1,1281,110356
1,1282,110261
1,1283,109817
1,1284,109380
1,1285,109311
1,1286,108976
1,1287,108734
1,1288,108249
1,1289,107939
1,1290,107756
1,1291,107137
1,1292,106806
1,1293,106541
1,1294,106075
1,1295,105742
1,1296,105291
1,1297,104978
1,1298,104527
1,1299,104210
1,1300,104089
1,1301,103770
1,1302,103233
1,1303,102869
1,1304,102439
1,1305,102022
1,1306,101755
1,1307,101187
1,1308,100738
1,1309,100653
1,1310,100048
1,1311,99582
1,1312,99062
1,1313,98766
1,1314,98459
1,1315,97966
1,1316,97665
1,1317,97085
1,1318,96513
1,1319,96493
1,1320,96022
1,1321,95614
1,1322,95128
1,1323,94706
1,1324,94364
1,1325,93839
1,1326,93675
1,1327,93138
1,1328,92655
1,1329,92291
1,1330,91762
1,1331,91426
1,1332,91125
1,1333,90498
1,1334,90356
1,1335,89954
1,1336,89470
1,1337,89154
1,1338,88545
1,1339,87937
1,1340,95928
