1,1,63334
1,2,63409
1,3,63355
1,4,63364
1,5,63394
1,6,63385
1,7,63404
1,8,63388
1,9,63385
1,10,63382
1,11,63417
1,12,63411
1,13,63380
1,14,63363
1,15,63339
1,16,63415
1,17,63419
1,18,63401
1,19,63403
1,20,63391
1,21,63439
1,22,63396
1,23,63401
1,24,63393
1,25,63399
1,26,63383
1,27,63414
1,28,63408
1,29,63398
1,30,63399
1,31,63429
1,32,63396
1,33,63347
1,34,63401
1,35,63372
1,36,63400
1,37,63360
1,38,63372
1,39,63426
1,40,63447
1,41,63397
1,42,63466
1,43,63412
1,44,63376
1,45,63414
1,46,63428
1,47,63386
1,48,63441
1,49,63423
1,50,63403
1,51,63379
1,52,63375
1,53,63417
1,54,63404
1,55,63424
1,56,63449
1,57,63381
1,58,63387
1,59,63385
1,60,63441
1,61,63423
1,62,63419
1,63,63424
1,64,63439
1,65,63465
1,66,63406
1,67,63381
1,68,63417
1,69,63400
1,70,63415
1,71,63455
1,72,63403
1,73,63433
1,74,63414
1,75,63415
1,76,63428
1,77,63405
1,78,63385
1,79,63449
1,80,63416
1,81,63368
1,82,63386
1,83,63393
1,84,63423
1,85,63427
1,86,63415
1,87,63386
1,88,63409
1,89,63396
1,90,63360
1,91,63392
1,92,63408
1,93,63332
1,94,63395
1,95,63388
1,96,63375
1,97,63393
1,98,63397
1,99,63372
1,100,63378
1,101,63420
1,102,63360
1,103,63339
1,104,63372
1,105,63379
1,106,63376
1,107,63377
1,108,63355
1,109,63365
1,110,63376
1,111,63365
1,112,63351
1,113,63387
1,114,63405
1,115,63369
1,116,63427
1,117,63421
1,118,63419
1,119,63470
1,120,63428
1,121,63421
1,122,63416
1,123,63431
1,124,63383
1,125,63417
1,126,63424
1,127,63406
1,128,63359
1,129,63375
1,130,63369
1,131,63385
1,132,63374
1,133,63367
1,134,63398
1,135,63379
1,136,63380
1,137,63385
1,138,63359
1,139,63353
1,140,63370
1,141,63370
1,142,63396
1,143,63359
1,144,63382
1,145,63348
1,146,63367
1,147,63360
1,148,63379
1,149,63346
1,150,63361
1,151,63364
1,152,63361
1,153,63356
1,154,63371
1,155,63342
1,156,63376
1,157,63399
1,158,63388
1,159,63398
1,160,63391
1,161,63402
1,162,63326
1,163,63392
1,164,63397
1,165,63417
1,166,63395
1,167,63381
1,168,63336
1,169,63408
1,170,63387
1,171,63396
1,172,63387
1,173,63354
1,174,63365
1,175,63335
1,176,63366
1,177,63379
1,178,63385
1,179,63407
1,180,63379
1,181,63397
1,182,63294
1,183,63350
1,184,63332
1,185,63338
1,186,63386
1,187,63397
1,188,63351
1,189,63387
1,190,63350
1,191,63389
1,192,63357
1,193,63376
1,194,63357
1,195,63404
1,196,63398
1,197,63398
1,198,63443
1,199,63443
1,200,63470
1,201,63429
1,202,63482
1,203,63462
1,204,63416
1,205,63425
1,206,63431
1,207,63414
1,208,63426
1,209,63407
1,210,63397
1,211,63425
1,212,63437
1,213,63400
1,214,63485
1,215,63429
1,216,63415
1,217,63450
1,218,63441
1,219,63454
1,220,63468
1,221,63472
1,222,63441
1,223,63471
1,224,63515
1,225,63419
1,226,63483
1,227,63472
1,228,63487
1,229,63487
1,230,63540
1,231,63510
1,232,63512
1,233,63512
1,234,63541
1,235,63506
1,236,63518
1,237,63478
1,238,63546
1,239,63523
1,240,63516
1,241,63555
1,242,63559
1,243,63544
1,244,63538
1,245,63564
1,246,63567
1,247,63556
1,248,63551
1,249,63573
1,250,63543
1,251,63570
1,252,63571
1,253,63583
1,254,63585
1,255,63593
1,256,63575
1,257,63566
1,258,63584
1,259,63598
1,260,63621
1,261,63650
1,262,63583
1,263,63667
1,264,63646
1,265,63632
1,266,63642
1,267,63600
1,268,63619
1,269,63612
1,270,63595
1,271,63608
1,272,63653
1,273,63681
1,274,63652
1,275,63676
1,276,63677
1,277,63624
1,278,63689
1,279,63686
1,280,63663
1,281,63692
1,282,63698
1,283,63666
1,284,63681
1,285,63672
1,286,63645
1,287,63696
1,288,63651
1,289,63690
1,290,63712
1,291,63705
1,292,63703
1,293,63691
1,294,63691
1,295,63689
1,296,63712
1,297,63713
1,298,63698
1,299,63712
1,300,63764
1,301,63743
1,302,63689
1,303,63680
1,304,63722
1,305,63744
1,306,63723
1,307,63740
1,308,63756
1,309,63713
1,310,63750
1,311,63717
1,312,63690
1,313,63763
1,314,63773
1,315,63758
1,316,63752
1,317,63746
1,318,63787
1,319,63801
1,320,63767
1,321,63804
1,322,63794
1,323,63817
1,324,63834
1,325,63808
1,326,63758
1,327,63827
1,328,63803
1,329,63774
1,330,63796
1,331,63795
1,332,63813
1,333,63822
1,334,63805
1,335,63794
1,336,63824
1,337,63821
1,338,63847
1,339,63834
1,340,63861
1,341,63923
1,342,63869
1,343,63881
1,344,63897
1,345,63862
1,346,63862
1,347,63896
1,348,63906
1,349,63880
1,350,63900
1,351,63893
1,352,63897
1,353,63924
1,354,63865
1,355,63909
1,356,63915
1,357,63930
1,358,63939
1,359,63956
1,360,63969
1,361,63961
1,362,63991
1,363,63992
1,364,63961
1,365,63976
1,366,63974
1,367,63993
1,368,63993
1,369,63991
1,370,63977
1,371,64019
1,372,64000
1,373,64027
1,374,64036
1,375,64058
1,376,64080
1,377,64084
1,378,64051
1,379,64058
1,380,64072
1,381,64064
1,382,64103
1,383,64123
1,384,64124
1,385,64119
1,386,64088
1,387,64137
1,388,64157
1,389,64178
1,390,64207
1,391,64158
1,392,64202
1,393,64196
1,394,64187
1,395,64243
1,396,64224
1,397,64211
1,398,64264
1,399,64229
1,400,64294
1,401,64281
1,402,64331
1,403,64304
1,404,64342
1,405,64375
1,406,64293
1,407,64364
1,408,64376
1,409,64412
1,410,64454
1,411,64402
1,412,64415
1,413,64447
1,414,64441
1,415,64412
1,416,64480
1,417,64529
1,418,64476
1,419,64583
1,420,64548
1,421,64555
1,422,64537
1,423,64555
1,424,64583
1,425,64674
1,426,64681
1,427,64660
1,428,64672
1,429,64747
1,430,64708
1,431,64665
1,432,64732
1,433,64733
1,434,64760
1,435,64812
1,436,64789
1,437,64858
1,438,64922
1,439,64854
1,440,64850
1,441,64926
1,442,64980
1,443,64934
1,444,65022
1,445,65031
1,446,65086
1,447,65109
1,448,65111
1,449,65105
1,450,65133
1,451,65129
1,452,65182
1,453,65218
1,454,65248
1,455,65256
1,456,65293
1,457,65326
1,458,65333
1,459,65381
1,460,65420
1,461,65416
1,462,65425
1,463,65492
1,464,65605
1,465,65598
1,466,65560
1,467,65615
1,468,65681
1,469,65676
1,470,65696
1,471,65730
1,472,65822
1,473,65833
1,474,65901
1,475,65916
1,476,65942
1,477,65934
1,478,65965
1,479,66005
1,480,66112
1,481,66120
1,482,66199
1,483,66172
1,484,66274
1,485,66349
1,486,66305
1,487,66337
1,488,66394
1,489,66471
1,490,66544
1,491,66570
1,492,66551
1,493,66661
1,494,66731
1,495,66770
1,496,66758
1,497,66847
1,498,66892
1,499,66946
1,500,67019
1,501,67020
1,502,67057
1,503,67125
1,504,67180
1,505,67257
1,506,67334
1,507,67341
1,508,67452
1,509,67420
1,510,67519
1,511,67606
1,512,67617
1,513,67689
1,514,67702
1,515,67790
1,516,67850
1,517,67988
1,518,67975
1,519,68024
1,520,68105
1,521,68157
1,522,68263
1,523,68341
1,524,68328
1,525,68394
1,526,68461
1,527,68556
1,528,68561
1,529,68611
1,530,68697
1,531,68745
1,532,68884
1,533,68923
1,534,68981
1,535,69073
1,536,69064
1,537,69204
1,538,69319
1,539,69329
1,540,69410
1,541,69470
1,542,69514
1,543,69559
1,544,69650
1,545,69765
1,546,69801
1,547,69955
1,548,69952
1,549,70043
1,550,70163
1,551,70197
1,552,70213
1,553,70382
1,554,70446
1,555,70570
1,556,70538
1,557,70671
1,558,70714
1,559,70740
1,560,70892
1,561,70914
1,562,71021
1,563,71011
1,564,71284
1,565,71276
1,566,71269
1,567,71432
1,568,71515
1,569,71497
1,570,71638
1,571,71733
1,572,71746
1,573,71769
1,574,71854
1,575,71992
1,576,72057
1,577,72075
1,578,72197
1,579,72190
1,580,72316
1,581,72401
1,582,72493
1,583,72624
1,584,72673
1,585,72703
1,586,72730
1,587,72752
1,588,72856
1,589,72984
1,590,73082
1,591,73114
1,592,73110
1,593,73187
1,594,73271
1,595,73317
1,596,73469
1,597,73469
1,598,73498
1,599,73650
1,600,73621
1,601,73652
1,602,73722
1,603,73766
1,604,73906
1,605,73823
1,606,74009
1,607,74051
1,608,74063
1,609,74162
1,610,74151
1,611,74208
1,612,74273
1,613,74330
1,614,74452
1,615,74379
1,616,74384
1,617,74422
1,618,74604
1,619,74612
1,620,74581
1,621,74613
1,622,74720
1,623,74781
1,624,74659
1,625,74773
1,626,74857
1,627,74915
1,628,74884
1,629,74983
1,630,74888
1,631,74965
1,632,74969
1,633,75147
1,634,75032
1,635,75070
1,636,75105
1,637,75179
1,638,75108
1,639,75169
1,640,75243
1,641,75260
1,642,75284
1,643,75303
1,644,75148
1,645,75189
1,646,75198
1,647,75304
1,648,75191
1,649,75285
1,650,75351
1,651,75314
1,652,75295
1,653,75166
1,654,75236
1,655,75260
1,656,75236
1,657,75314
1,658,75287
1,659,75262
1,660,75151
1,661,75294
1,662,75149
1,663,75250
1,664,75227
1,665,75023
1,666,75183
1,667,75167
1,668,75156
1,669,75050
1,670,75151
1,671,75082
1,672,74981
1,673,75040
1,674,74948
1,675,75041
1,676,74966
1,677,74882
1,678,74857
1,679,74943
1,680,74865
1,681,74771
1,682,74819
1,683,74678
1,684,74692
1,685,74680
1,686,74523
1,687,74512
1,688,74568
1,689,74557
1,690,74364
1,691,74387
1,692,74236
1,693,74399
1,694,74299
1,695,74223
1,696,74196
1,697,74202
1,698,74188
1,699,74147
1,700,73992
1,701,73992
1,702,73940
1,703,73828
1,704,73804
1,705,73763
1,706,73737
1,707,73636
1,708,73700
1,709,73538
1,710,73533
1,711,73495
1,712,73384
1,713,73307
1,714,73330
1,715,73272
1,716,73313
1,717,73118
1,718,73008
1,719,73035
1,720,73015
1,721,72898
1,722,72862
1,723,72770
1,724,72840
1,725,72839
1,726,72740
1,727,72617
1,728,72624
1,729,72551
1,730,72338
1,731,72354
1,732,72250
1,733,72191
1,734,72217
1,735,72222
1,736,72097
1,737,71976
1,738,71956
1,739,71878
1,740,71856
1,741,71915
1,742,71707
1,743,71711
1,744,71691
1,745,71500
1,746,71522
1,747,71505
1,748,71369
1,749,71426
1,750,71280
1,751,71271
1,752,71247
1,753,71256
1,754,71133
1,755,71070
1,756,70891
1,757,71000
1,758,70924
1,759,70870
1,760,70819
1,761,70705
1,762,70723
1,763,70695
1,764,70630
1,765,70574
1,766,70444
1,767,70386
1,768,70397
1,769,70474
1,770,70343
1,771,70309
1,772,70204
1,773,70106
1,774,70158
1,775,70084
1,776,69987
1,777,69948
1,778,69909
1,779,69814
1,780,69844
1,781,69740
1,782,69743
1,783,69678
1,784,69563
1,785,69513
1,786,69528
1,787,69481
1,788,69394
1,789,69330
1,790,69435
1,791,69338
1,792,69257
1,793,69278
1,794,69272
1,795,69146
1,796,69104
1,797,69011
1,798,69087
1,799,68987
1,800,68990
1,801,68959
1,802,68877
1,803,68909
1,804,68828
1,805,68793
1,806,68764
1,807,68689
1,808,68582
1,809,68655
1,810,68695
1,811,68568
1,812,68503
1,813,68420
1,814,68428
1,815,68398
1,816,68391
1,817,68380
1,818,68393
1,819,68341
1,820,68258
1,821,68232
1,822,68185
1,823,68121
1,824,68245
1,825,68087
1,826,68052
1,827,68102
1,828,68000
1,829,68047
1,830,67983
1,831,67931
1,832,67870
1,833,67883
1,834,67806
1,835,67850
1,836,67836
1,837,67801
1,838,67704
1,839,67750
1,840,67742
1,841,67705
1,842,67620
1,843,67621
1,844,67507
1,845,67505
1,846,67568
1,847,67517
1,848,67454
1,849,67443
1,850,67409
1,851,67436
1,852,67403
1,853,67323
1,854,67311
1,855,67261
1,856,67311
1,857,67281
1,858,67246
1,859,67178
1,860,67128
1,861,67221
1,862,67134
1,863,67156
1,864,67154
1,865,67106
1,866,67082
1,867,67061
1,868,67041
1,869,67008
1,870,66996
1,871,67030
1,872,66992
1,873,66929
1,874,66903
1,875,66870
1,876,66858
1,877,66852
1,878,66811
1,879,66822
1,880,66773
1,881,66775
1,882,66789
1,883,66699
1,884,66754
1,885,66757
1,886,66675
1,887,66654
1,888,66682
1,889,66623
1,890,66645
1,891,66561
1,892,66496
1,893,66537
1,894,66477
1,895,66503
1,896,66547
1,897,66561
1,898,66453
1,899,66493
1,900,66479
1,901,66454
1,902,66501
1,903,66491
1,904,66453
1,905,66436
1,906,66406
1,907,66403
1,908,66373
1,909,66379
1,910,66360
1,911,66309
1,912,66329
1,913,66300
1,914,66286
1,915,66281
1,916,66262
1,917,66259
1,918,66308
1,919,66246
1,920,66206
1,921,66240
1,922,66191
1,923,66172
1,924,66175
1,925,66182
1,926,66183
1,927,66159
1,928,66154
1,929,66108
1,930,66145
1,931,66202
1,932,66135
1,933,66139
1,934,66091
1,935,66046
1,936,66030
1,937,66051
1,938,66053
1,939,65986
1,940,66055
1,941,66017
1,942,66017
1,943,66017
1,944,66012
1,945,65958
1,946,65999
1,947,66024
1,948,65934
1,949,65921
1,950,65915
1,951,65952
1,952,65852
1,953,65918
1,954,65894
1,955,65829
1,956,65900
1,957,65827
1,958,65843
1,959,65828
1,960,65863
1,961,65871
1,962,65860
1,963,65816
1,964,65789
1,965,65809
1,966,65821
1,967,65774
1,968,65846
1,969,65762
1,970,65803
1,971,65730
1,972,65738
1,973,65760
1,974,65737
1,975,65742
1,976,65810
1,977,65761
1,978,65702
1,979,65718
1,980,65704
1,981,65690
1,982,65680
1,983,65779
1,984,65689
1,985,65694
1,986,65719
1,987,65677
1,988,65641
1,989,65656
1,990,65721
1,991,65604
1,992,65642
1,993,65643
1,994,65631
1,995,65664
1,996,65663
1,997,65641
1,998,65616
1,999,65639
1,1000,65607
1,1001,65668
1,1002,65604
1,1003,65655
1,1004,65676
1,1005,65664
1,1006,65607
1,1007,65640
1,1008,65606
1,1009,65625
1,1010,65596
1,1011,65629
1,1012,65589
1,1013,65566
1,1014,65632
1,1015,65577
1,1016,65609
1,1017,65609
1,1018,65574
1,1019,65604
1,1020,65503
1,1021,65543
1,1022,65601
1,1023,65574
1,1024,65494
1,1025,65571
1,1026,65551
1,1027,65511
1,1028,65504
1,1029,65562
1,1030,65475
1,1031,65525
1,1032,65510
1,1033,65554
1,1034,65475
1,1035,65574
1,1036,65524
1,1037,65527
1,1038,65525
1,1039,65530
1,1040,65496
1,1041,65474
1,1042,65486
1,1043,65491
1,1044,65495
1,1045,65512
1,1046,65494
1,1047,65532
1,1048,65458
1,1049,65483
1,1050,65463
1,1051,65514
1,1052,65511
1,1053,65457
1,1054,65480
1,1055,65497
1,1056,65422
1,1057,65463
1,1058,65498
1,1059,65441
1,1060,65443
1,1061,65458
1,1062,65433
1,1063,65424
1,1064,65407
1,1065,65415
1,1066,65464
1,1067,65411
1,1068,65444
1,1069,65421
1,1070,65425
1,1071,65491
1,1072,65504
1,1073,65468
1,1074,65457
1,1075,65446
1,1076,65395
1,1077,65452
1,1078,65404
1,1079,65380
1,1080,65405
1,1081,65432
1,1082,65425
1,1083,65417
1,1084,65342
1,1085,65398
1,1086,65415
1,1087,65378
1,1088,65342
1,1089,65427
1,1090,65357
1,1091,65364
1,1092,65382
1,1093,65414
1,1094,65385
1,1095,65388
1,1096,65392
1,1097,65342
1,1098,65379
1,1099,65379
1,1100,65339
1,1101,65351
1,1102,65372
1,1103,65360
1,1104,65356
1,1105,65307
1,1106,65340
1,1107,65327
1,1108,65395
1,1109,65393
1,1110,65341
1,1111,65325
1,1112,65384
1,1113,65327
1,1114,65322
1,1115,65388
1,1116,65337
1,1117,65317
1,1118,65350
1,1119,65298
1,1120,65310
1,1121,65346
1,1122,65385
1,1123,65365
1,1124,65329
1,1125,65355
1,1126,65335
1,1127,65361
1,1128,65402
1,1129,65353
1,1130,65353
1,1131,65359
1,1132,65293
1,1133,65300
1,1134,65325
1,1135,65343
1,1136,65287
1,1137,65319
1,1138,65336
1,1139,65305
1,1140,65270
1,1141,65296
1,1142,65300
1,1143,65349
1,1144,65323
1,1145,65338
1,1146,65314
1,1147,65280
1,1148,65276
1,1149,65273
1,1150,65325
1,1151,65279
1,1152,65276
1,1153,65311
1,1154,65347
1,1155,65278
1,1156,65290
1,1157,65297
1,1158,65296
1,1159,65284
1,1160,65342
1,1161,65264
1,1162,65262
1,1163,65259
1,1164,65334
1,1165,65269
1,1166,65239
1,1167,65252
1,1168,65237
1,1169,65266
1,1170,65261
1,1171,65265
1,1172,65235
1,1173,65300
1,1174,65201
1,1175,65290
1,1176,65264
1,1177,65241
1,1178,65240
1,1179,65245
1,1180,65243
1,1181,65222
1,1182,65281
1,1183,65262
1,1184,65286
1,1185,65242
1,1186,65213
1,1187,65218
1,1188,65245
1,1189,65215
1,1190,65177
1,1191,65236
1,1192,65197
1,1193,65242
1,1194,65185
1,1195,65223
1,1196,65185
1,1197,65205
1,1198,65248
1,1199,65246
1,1200,65242
1,1201,65234
1,1202,65205
1,1203,65185
1,1204,65195
1,1205,65196
1,1206,65193
1,1207,65225
1,1208,65227
1,1209,65233
1,1210,65218
1,1211,65184
1,1212,65189
1,1213,65196
1,1214,65200
1,1215,65218
1,1216,65175
1,1217,65206
1,1218,65168
1,1219,65204
1,1220,65199
1,1221,65181
1,1222,65187
1,1223,65161
1,1224,65204
1,1225,65189
1,1226,65193
1,1227,65165
1,1228,65146
1,1229,65188
1,1230,65180
1,1231,65187
1,1232,65177
1,1233,65155
1,1234,65183
1,1235,65128
1,1236,65176
1,1237,65100
1,1238,65136
1,1239,65204
1,1240,65158
1,1241,65115
1,1242,65143
1,1243,65114
1,1244,65174
1,1245,65052
1,1246,65049
1,1247,65125
1,1248,65113
1,1249,65105
1,1250,65099
1,1251,65106
1,1252,65084
1,1253,65126
1,1254,65100
1,1255,65071
1,1256,65043
1,1257,65026
1,1258,65062
1,1259,65066
1,1260,65040
1,1261,65047
1,1262,64996
1,1263,65068
1,1264,65045
1,1265,65040
1,1266,64997
1,1267,64998
1,1268,64993
1,1269,64982
1,1270,65025
1,1271,64979
1,1272,64977
1,1273,64935
1,1274,64948
1,1275,64993
1,1276,64962
1,1277,64950
1,1278,64931
1,1279,64928
1,1280,64913
1,1281,64875
1,1282,64888
1,1283,64891
1,1284,64810
1,1285,64890
1,1286,64837
1,1287,64796
1,1288,64785
1,1289,64801
1,1290,64779
1,1291,64787
1,1292,64783
1,1293,64776
1,1294,64712
1,1295,64696
1,1296,64724
1,1297,64704
1,1298,64723
1,1299,64701
1,1300,64678
1,1301,64660
1,1302,64667
1,1303,64600
1,1304,64634
1,1305,64635
1,1306,64620
1,1307,64594
1,1308,64599
1,1309,64560
1,1310,64529
1,1311,64549
1,1312,64539
1,1313,64498
1,1314,64566
1,1315,64464
1,1316,64483
1,1317,64446
1,1318,64432
1,1319,64443
1,1320,64462
1,1321,64380
1,1322,64385
1,1323,64371
1,1324,64375
1,1325,64412
1,1326,64384
1,1327,64277
1,1328,64307
1,1329,64284
1,1330,64348
1,1331,64320
1,1332,64239
1,1333,64200
1,1334,64240
1,1335,64151
1,1336,64141
1,1337,64119
1,1338,64083
1,1339,63820
1,1340,72372
