1,1,653211
1,2,653556
1,3,653675
1,4,654072
1,5,654171
1,6,654510
1,7,654936
1,8,655131
1,9,655194
1,10,655445
1,11,655720
1,12,655857
1,13,656219
1,14,656269
1,15,656763
1,16,656990
1,17,657288
1,18,657600
1,19,657694
1,20,658039
1,21,657896
1,22,658405
1,23,658806
1,24,658821
1,25,659022
1,26,659062
1,27,659416
1,28,660031
1,29,660195
1,30,660465
1,31,660703
1,32,660809
1,33,661145
1,34,661357
1,35,661586
1,36,661752
1,37,661956
1,38,662318
1,39,662630
1,40,662851
1,41,663091
1,42,663653
1,43,663796
1,44,664185
1,45,664278
1,46,664425
1,47,664679
1,48,664935
1,49,665423
1,50,665551
1,51,665727
1,52,665973
1,53,666571
1,54,666539
1,55,667015
1,56,667198
1,57,667520
1,58,667862
1,59,668086
1,60,668333
1,61,668713
1,62,669170
1,63,669120
1,64,669567
1,65,669832
1,66,669973
1,67,670295
1,68,670169
1,69,670326
1,70,670580
1,71,670655
1,72,670618
1,73,670301
1,74,670089
1,75,669425
1,76,668687
1,77,667728
1,78,666721
1,79,665478
1,80,664683
1,81,663438
1,82,662150
1,83,661052
1,84,659692
1,85,658510
1,86,657472
1,87,656350
1,88,655118
1,89,653992
1,90,653056
1,91,651992
1,92,651149
1,93,650212
1,94,649467
1,95,648632
1,96,648000
1,97,647254
1,98,646510
1,99,645778
1,100,645153
1,101,644488
1,102,644031
1,103,643596
1,104,643412
1,105,642888
1,106,642999
1,107,643031
1,108,642852
1,109,643011
1,110,643987
1,111,646094
1,112,647943
1,113,654533
1,114,667090
1,115,675667
1,116,684195
1,117,692355
1,118,695923
1,119,697089
1,120,692062
1,121,683061
1,122,676715
1,123,671251
1,124,661954
1,125,655401
1,126,653253
1,127,650525
1,128,647780
1,129,646414
1,130,646086
1,131,645273
1,132,644279
1,133,644291
1,134,644113
1,135,643397
1,136,643022
1,137,642735
1,138,642292
1,139,642161
1,140,641827
1,141,641535
1,142,641306
1,143,641350
1,144,641096
1,145,640930
1,146,640778
1,147,640806
1,148,640663
1,149,640760
1,150,640691
1,151,640646
1,152,640677
1,153,640503
1,154,640620
1,155,640396
1,156,640434
1,157,640479
1,158,640223
1,159,640372
1,160,640325
1,161,640311
1,162,640295
1,163,640273
1,164,640304
1,165,640176
1,166,640420
1,167,640367
1,168,640117
1,169,640038
1,170,640305
1,171,640307
1,172,640245
1,173,640222
1,174,640464
1,175,640415
1,176,640306
1,177,640452
1,178,640466
1,179,640439
1,180,640468
1,181,640616
1,182,640802
1,183,640669
1,184,640775
1,185,640976
1,186,641266
1,187,641403
1,188,641858
1,189,642448
1,190,643396
1,191,644321
1,192,645838
1,193,648705
1,194,651914
1,195,656479
1,196,661971
1,197,670327
1,198,678854
1,199,682557
1,200,687882
1,201,692334
1,202,688768
1,203,682297
1,204,682314
1,205,677398
1,206,670695
1,207,668765
1,208,666718
1,209,664027
1,210,663315
1,211,663678
1,212,664091
1,213,664924
1,214,666560
1,215,667765
1,216,668778
1,217,670270
1,218,671844
1,219,673479
1,220,675265
1,221,677452
1,222,678862
1,223,680363
1,224,681794
1,225,682576
1,226,683331
1,227,684917
1,228,687029
1,229,688618
1,230,690389
1,231,691575
1,232,692688
1,233,693290
1,234,694085
1,235,694925
1,236,696023
1,237,697351
1,238,699004
1,239,700399
1,240,702084
1,241,702907
1,242,703493
1,243,704151
1,244,704649
1,245,705098
1,246,706532
1,247,707792
1,248,709305
1,249,710528
1,250,711406
1,251,712273
1,252,713049
1,253,713278
1,254,714046
1,255,714777
1,256,715264
1,257,716303
1,258,717454
1,259,718979
1,260,719643
1,261,720798
1,262,721007
1,263,721678
1,264,721770
1,265,722512
1,266,723238
1,267,724376
1,268,725052
1,269,726025
1,270,727023
1,271,727281
1,272,728183
1,273,728416
1,274,729200
1,275,729345
1,276,729798
1,277,730934
1,278,731337
1,279,731716
1,280,732915
1,281,733430
1,282,733475
1,283,733804
1,284,734263
1,285,734303
1,286,735019
1,287,735383
1,288,736057
1,289,736274
1,290,736918
1,291,737264
1,292,737847
1,293,737924
1,294,738369
1,295,738638
1,296,739486
1,297,739467
1,298,740210
1,299,740563
1,300,740661
1,301,740881
1,302,741351
1,303,741889
1,304,742269
1,305,742597
1,306,742834
1,307,742927
1,308,743093
1,309,743463
1,310,744160
1,311,744072
1,312,744603
1,313,744731
1,314,744982
1,315,745215
1,316,745314
1,317,745546
1,318,746113
1,319,746279
1,320,746568
1,321,747114
1,322,747364
1,323,747303
1,324,748348
1,325,748286
1,326,748149
1,327,748764
1,328,748771
1,329,749037
1,330,749102
1,331,749640
1,332,750233
1,333,750260
1,334,750412
1,335,750413
1,336,750772
1,337,751073
1,338,751160
1,339,751631
1,340,751449
1,341,751967
1,342,752681
1,343,752890
1,344,753293
1,345,753296
1,346,753159
1,347,753474
1,348,754047
1,349,753963
1,350,754350
1,351,754388
1,352,754964
1,353,755222
1,354,755432
1,355,755789
1,356,755878
1,357,755698
1,358,756106
1,359,756422
1,360,756686
1,361,757236
1,362,757001
1,363,757655
1,364,757220
1,365,757971
1,366,758130
1,367,758337
1,368,758804
1,369,758796
1,370,759039
1,371,759250
1,372,759629
1,373,759775
1,374,760359
1,375,760410
1,376,760792
1,377,760983
1,378,761252
1,379,761551
1,380,762019
1,381,761808
1,382,762321
1,383,762557
1,384,762744
1,385,763071
1,386,763332
1,387,763159
1,388,763756
1,389,763764
1,390,764390
1,391,764244
1,392,764788
1,393,764924
1,394,765131
1,395,765796
1,396,765872
1,397,766481
1,398,766626
1,399,766779
1,400,767012
1,401,767237
1,402,767765
1,403,768444
1,404,768241
1,405,769010
1,406,768701
1,407,769064
1,408,769300
1,409,769481
1,410,770038
1,411,770165
1,412,770528
1,413,770995
1,414,771320
1,415,771656
1,416,772057
1,417,772271
1,418,772134
1,419,772657
1,420,772885
1,421,773397
1,422,773414
1,423,773659
1,424,774046
1,425,774164
1,426,774295
1,427,774868
1,428,775042
1,429,775566
1,430,775719
1,431,775780
1,432,776374
1,433,776345
1,434,777049
1,435,777169
1,436,776969
1,437,777449
1,438,778058
1,439,777998
1,440,778878
1,441,778914
1,442,779063
1,443,779241
1,444,779765
1,445,780058
1,446,780404
1,447,780899
1,448,781227
1,449,781130
1,450,781961
1,451,782033
1,452,782155
1,453,782385
1,454,783057
1,455,783171
1,456,783137
1,457,783435
1,458,784309
1,459,784288
1,460,784412
1,461,784911
1,462,785460
1,463,785348
1,464,785578
1,465,786147
1,466,786187
1,467,786712
1,468,786989
1,469,787242
1,470,787809
1,471,788162
1,472,788451
1,473,788584
1,474,788935
1,475,789726
1,476,789614
1,477,790132
1,478,790063
1,479,790458
1,480,791111
1,481,791226
1,482,791514
1,483,791984
1,484,791977
1,485,792635
1,486,792502
1,487,792827
1,488,792755
1,489,793396
1,490,793385
1,491,794270
1,492,794660
1,493,794219
1,494,795108
1,495,795255
1,496,795188
1,497,795387
1,498,795880
1,499,796258
1,500,796900
1,501,796615
1,502,797010
1,503,797294
1,504,797616
1,505,798280
1,506,798197
1,507,798678
1,508,798953
1,509,799446
1,510,799472
1,511,799686
1,512,800158
1,513,799914
1,514,800584
1,515,800977
1,516,800678
1,517,801076
1,518,801548
1,519,801838
1,520,801789
1,521,802168
1,522,802495
1,523,803079
1,524,803515
1,525,803606
1,526,803763
1,527,804617
1,528,804733
1,529,804863
1,530,805271
1,531,805523
1,532,806040
1,533,805854
1,534,806410
1,535,806391
1,536,806964
1,537,806711
1,538,807181
1,539,808101
1,540,807618
1,541,808377
1,542,809104
1,543,808766
1,544,808670
1,545,809968
1,546,809938
1,547,810511
1,548,811096
1,549,810991
1,550,811137
1,551,811152
1,552,811402
1,553,811974
1,554,812140
1,555,812412
1,556,813089
1,557,812531
1,558,812922
1,559,812997
1,560,813539
1,561,813938
1,562,813482
1,563,813581
1,564,814463
1,565,813888
1,566,814300
1,567,814853
1,568,814841
1,569,815281
1,570,815132
1,571,815216
1,572,816031
1,573,815791
1,574,815772
1,575,816276
1,576,816707
1,577,816433
1,578,817272
1,579,817261
1,580,817167
1,581,816973
1,582,817210
1,583,817108
1,584,817420
1,585,817074
1,586,818062
1,587,818466
1,588,818437
1,589,818376
1,590,818171
1,591,818600
1,592,818769
1,593,818983
1,594,819195
1,595,819141
1,596,819406
1,597,819740
1,598,819727
1,599,820142
1,600,820126
1,601,819764
1,602,820343
1,603,820276
1,604,820285
1,605,820776
1,606,821300
1,607,821133
1,608,820874
1,609,821026
1,610,821346
1,611,821188
1,612,821215
1,613,821664
1,614,821738
1,615,821344
1,616,821528
1,617,821933
1,618,821767
1,619,822003
1,620,822075
1,621,821947
1,622,822460
1,623,822528
1,624,822850
1,625,823277
1,626,822887
1,627,823081
1,628,823057
1,629,822598
1,630,822720
1,631,822460
1,632,822811
1,633,822945
1,634,822434
1,635,822355
1,636,822883
1,637,823124
1,638,822423
1,639,823009
1,640,822772
1,641,822872
1,642,823199
1,643,822854
1,644,822921
1,645,822898
1,646,823002
1,647,822922
1,648,823500
1,649,823181
1,650,823398
1,651,823138
1,652,823622
1,653,823176
1,654,823558
1,655,823278
1,656,823179
1,657,823412
1,658,823528
1,659,823201
1,660,823188
1,661,822952
1,662,823169
1,663,823078
1,664,823510
1,665,823424
1,666,823013
1,667,823211
1,668,822593
1,669,823096
1,670,823098
1,671,822404
1,672,822358
1,673,822950
1,674,822969
1,675,822769
1,676,823059
1,677,823518
1,678,823689
1,679,823699
1,680,823595
1,681,824224
1,682,823008
1,683,823494
1,684,823075
1,685,823360
1,686,823279
1,687,823320
1,688,822988
1,689,823258
1,690,822873
1,691,823063
1,692,822982
1,693,822440
1,694,822133
1,695,822372
1,696,822033
1,697,821324
1,698,821327
1,699,820867
1,700,821200
1,701,820477
1,702,820254
1,703,819972
1,704,820783
1,705,819796
1,706,819265
1,707,819432
1,708,819604
1,709,819889
1,710,819576
1,711,818988
1,712,819078
1,713,818861
1,714,819169
1,715,818814
1,716,818021
1,717,818003
1,718,817641
1,719,817513
1,720,817293
1,721,816895
1,722,816576
1,723,816840
1,724,816289
1,725,816583
1,726,816244
1,727,816335
1,728,816518
1,729,816070
1,730,815939
1,731,815992
1,732,816168
1,733,815394
1,734,815898
1,735,815564
1,736,815134
1,737,815100
1,738,814941
1,739,814800
1,740,814849
1,741,814986
1,742,814580
1,743,813849
1,744,813866
1,745,814269
1,746,814134
1,747,813458
1,748,813313
1,749,813546
1,750,813085
1,751,813104
1,752,813761
1,753,812658
1,754,813304
1,755,813036
1,756,813369
1,757,812909
1,758,812891
1,759,812727
1,760,812507
1,761,813208
1,762,812546
1,763,812558
1,764,812769
1,765,812271
1,766,811936
1,767,812352
1,768,812135
1,769,811791
1,770,811884
1,771,811633
1,772,811636
1,773,811993
1,774,811929
1,775,812330
1,776,811611
1,777,811350
1,778,811407
1,779,811218
1,780,811754
1,781,811190
1,782,811563
1,783,811474
1,784,811466
1,785,811143
1,786,811328
1,787,811661
1,788,811021
1,789,811210
1,790,811466
1,791,811776
1,792,811693
1,793,812119
1,794,811669
1,795,811362
1,796,811851
1,797,811974
1,798,812072
1,799,812206
1,800,812741
1,801,813056
1,802,812695
1,803,812790
1,804,812899
1,805,812705
1,806,812622
1,807,812000
1,808,812688
1,809,812400
1,810,812150
1,811,811966
1,812,811711
1,813,811419
1,814,811421
1,815,811218
1,816,811337
1,817,811435
1,818,811333
1,819,811332
1,820,811458
1,821,811036
1,822,811578
1,823,812314
1,824,812524
1,825,812371
1,826,813185
1,827,813173
1,828,813224
1,829,812995
1,830,812841
1,831,812907
1,832,812394
1,833,811511
1,834,811357
1,835,811481
1,836,810742
1,837,810248
1,838,810353
1,839,809794
1,840,809575
1,841,809948
1,842,809081
1,843,809201
1,844,808638
1,845,808890
1,846,808869
1,847,807891
1,848,807908
1,849,807551
1,850,808122
1,851,807440
1,852,807549
1,853,807936
1,854,807700
1,855,807528
1,856,807662
1,857,807626
1,858,807660
1,859,807519
1,860,807193
1,861,806815
1,862,807005
1,863,807171
1,864,806564
1,865,807245
1,866,807012
1,867,807350
1,868,806637
1,869,807079
1,870,807150
1,871,807116
1,872,806837
1,873,806670
1,874,806403
1,875,806514
1,876,805962
1,877,806718
1,878,806090
1,879,805880
1,880,806258
1,881,806248
1,882,806270
1,883,806116
1,884,806193
1,885,805676
1,886,805835
1,887,805469
1,888,805478
1,889,805303
1,890,805533
1,891,805518
1,892,805675
1,893,805723
1,894,805566
1,895,805784
1,896,805599
1,897,805091
1,898,805285
1,899,805073
1,900,805248
1,901,805393
1,902,805847
1,903,805833
1,904,805811
1,905,806564
1,906,806212
1,907,806402
1,908,806347
1,909,806336
1,910,806895
1,911,807448
1,912,808072
1,913,809213
1,914,809779
1,915,810625
1,916,811907
1,917,812306
1,918,812495
1,919,812848
1,920,812742
1,921,812726
1,922,812184
1,923,811132
1,924,810902
1,925,810586
1,926,810273
1,927,810008
1,928,809531
1,929,809362
1,930,809189
1,931,808942
1,932,808054
1,933,808248
1,934,807449
1,935,807167
1,936,806303
1,937,805597
1,938,805751
1,939,805303
1,940,804680
1,941,804157
1,942,804107
1,943,803811
1,944,803733
1,945,803060
1,946,803094
1,947,802648
1,948,802239
1,949,802362
1,950,801880
1,951,801899
1,952,801509
1,953,801841
1,954,801573
1,955,801394
1,956,801744
1,957,801127
1,958,800605
1,959,800916
1,960,800824
1,961,800710
1,962,800366
1,963,800492
1,964,800014
1,965,800116
1,966,799788
1,967,799563
1,968,799762
1,969,799569
1,970,799653
1,971,799397
1,972,799399
1,973,799270
1,974,798983
1,975,798409
1,976,798956
1,977,798474
1,978,798920
1,979,798256
1,980,798736
1,981,798487
1,982,797941
1,983,798202
1,984,797640
1,985,797617
1,986,798042
1,987,797657
1,988,797679
1,989,797607
1,990,797661
1,991,797231
1,992,796950
1,993,796963
1,994,796578
1,995,796699
1,996,796528
1,997,796390
1,998,796148
1,999,796329
1,1000,795972
1,1001,796168
1,1002,796095
1,1003,796113
1,1004,796068
1,1005,795583
1,1006,795244
1,1007,795243
1,1008,795349
1,1009,795374
1,1010,794826
1,1011,795553
1,1012,794841
1,1013,794746
1,1014,794874
1,1015,794359
1,1016,794665
1,1017,794848
1,1018,793969
1,1019,794441
1,1020,794028
1,1021,793837
1,1022,793540
1,1023,793586
1,1024,793173
1,1025,793116
1,1026,793134
1,1027,793194
1,1028,792618
1,1029,792945
1,1030,792910
1,1031,792456
1,1032,792098
1,1033,792327
1,1034,792412
1,1035,791886
1,1036,791779
1,1037,791879
1,1038,791554
1,1039,791966
1,1040,791100
1,1041,791368
1,1042,791040
1,1043,790885
1,1044,790751
1,1045,790844
1,1046,790840
1,1047,790524
1,1048,790573
1,1049,790601
1,1050,789846
1,1051,790205
1,1052,790491
1,1053,790319
1,1054,790395
1,1055,790097
1,1056,790150
1,1057,790115
1,1058,789434
1,1059,789855
1,1060,789978
1,1061,790228
1,1062,790278
1,1063,790929
1,1064,791497
1,1065,791583
1,1066,792352
1,1067,793014
1,1068,794086
1,1069,794581
1,1070,794506
1,1071,794669
1,1072,794949
1,1073,794360
1,1074,793708
1,1075,792613
1,1076,791388
1,1077,790379
1,1078,789202
1,1079,788382
1,1080,787232
1,1081,787128
1,1082,786518
1,1083,785651
1,1084,785533
1,1085,784961
1,1086,784575
1,1087,784597
1,1088,784213
1,1089,784229
1,1090,784058
1,1091,783570
1,1092,783149
1,1093,783359
1,1094,783354
1,1095,783004
1,1096,782583
1,1097,782465
1,1098,782150
1,1099,782018
1,1100,781515
1,1101,781905
1,1102,781557
1,1103,781501
1,1104,781340
1,1105,781203
1,1106,780623
1,1107,780478
1,1108,780359
1,1109,780184
1,1110,780523
1,1111,779878
1,1112,780217
1,1113,779820
1,1114,779668
1,1115,779451
1,1116,779111
1,1117,778773
1,1118,778874
1,1119,778948
1,1120,778686
1,1121,778499
1,1122,778520
1,1123,778179
1,1124,778026
1,1125,777894
1,1126,777913
1,1127,777872
1,1128,777753
1,1129,777933
1,1130,777656
1,1131,777438
1,1132,777024
1,1133,777156
1,1134,777133
1,1135,777432
1,1136,777092
1,1137,776848
1,1138,776521
1,1139,776588
1,1140,776734
1,1141,776387
1,1142,776304
1,1143,776088
1,1144,775493
1,1145,774838
1,1146,774938
1,1147,774663
1,1148,773874
1,1149,773384
1,1150,773539
1,1151,773009
1,1152,772479
1,1153,772686
1,1154,772140
1,1155,772094
1,1156,772039
1,1157,771386
1,1158,771105
1,1159,771277
1,1160,770855
1,1161,770654
1,1162,770608
1,1163,770220
1,1164,770246
1,1165,769900
1,1166,769555
1,1167,769101
1,1168,769105
1,1169,769283
1,1170,768931
1,1171,768674
1,1172,768117
1,1173,768560
1,1174,768155
1,1175,768081
1,1176,767875
1,1177,767186
1,1178,766908
1,1179,766712
1,1180,766548
1,1181,766546
1,1182,766229
1,1183,766041
1,1184,765700
1,1185,765725
1,1186,765345
1,1187,765270
1,1188,764720
1,1189,764796
1,1190,764641
1,1191,764366
1,1192,764426
1,1193,763826
1,1194,763858
1,1195,763212
1,1196,763634
1,1197,763316
1,1198,762993
1,1199,762886
1,1200,762359
1,1201,762152
1,1202,761998
1,1203,761880
1,1204,761702
1,1205,761571
1,1206,761191
1,1207,761108
1,1208,760858
1,1209,761054
1,1210,760280
1,1211,760582
1,1212,760055
1,1213,759955
1,1214,759486
1,1215,759386
1,1216,759376
1,1217,758926
1,1218,758694
1,1219,758779
1,1220,758227
1,1221,758042
1,1222,758044
1,1223,758056
1,1224,757067
1,1225,757048
1,1226,756616
1,1227,756708
1,1228,756102
1,1229,755870
1,1230,755388
1,1231,755106
1,1232,754702
1,1233,754357
1,1234,754079
1,1235,753795
1,1236,753258
1,1237,752714
1,1238,752236
1,1239,751720
1,1240,751450
1,1241,751050
1,1242,750203
1,1243,749955
1,1244,749683
1,1245,749353
1,1246,748320
1,1247,748275
1,1248,747876
1,1249,747281
1,1250,746776
1,1251,746041
1,1252,745390
1,1253,745297
1,1254,744611
1,1255,744323
1,1256,743594
1,1257,742774
1,1258,742834
1,1259,742337
1,1260,741812
1,1261,741321
1,1262,740642
1,1263,740198
1,1264,739491
1,1265,739220
1,1266,738399
1,1267,738090
1,1268,737730
1,1269,737189
1,1270,736393
1,1271,736139
1,1272,735845
1,1273,735009
1,1274,734468
1,1275,733771
1,1276,733231
1,1277,732783
1,1278,732005
1,1279,731344
1,1280,730505
1,1281,730104
1,1282,729074
1,1283,728816
1,1284,728212
1,1285,727368
1,1286,726965
1,1287,725925
1,1288,725182
1,1289,724954
1,1290,724163
1,1291,723408
1,1292,722692
1,1293,722080
1,1294,721339
1,1295,720613
1,1296,719726
1,1297,718881
1,1298,718312
1,1299,717411
1,1300,716509
1,1301,716023
1,1302,715016
1,1303,714201
1,1304,713920
1,1305,713289
1,1306,712135
1,1307,711341
1,1308,710496
1,1309,709486
1,1310,708999
1,1311,708222
1,1312,707417
1,1313,706765
1,1314,705940
1,1315,705082
1,1316,704728
1,1317,703742
1,1318,702706
1,1319,702398
1,1320,701411
1,1321,700458
1,1322,700019
1,1323,699308
1,1324,698371
1,1325,697625
1,1326,696729
1,1327,695571
1,1328,695268
1,1329,694201
1,1330,693401
1,1331,692479
1,1332,691681
1,1333,690642
1,1334,690110
1,1335,688949
1,1336,687672
1,1337,687081
1,1338,686298
1,1339,682603
1,1340,767544
