1,1,360975
1,2,361349
1,3,361813
1,4,362524
1,5,363148
1,6,363901
1,7,364469
1,8,364916
1,9,365605
1,10,366183
1,11,366673
1,12,367274
1,13,368112
1,14,368676
1,15,369209
1,16,369844
1,17,370524
1,18,371508
1,19,371666
1,20,372433
1,21,373029
1,22,373768
1,23,374674
1,24,375159
1,25,375643
1,26,376779
1,27,377121
1,28,378129
1,29,378587
1,30,379010
1,31,379861
1,32,380420
1,33,381106
1,34,382047
1,35,382568
1,36,383569
1,37,384226
1,38,384749
1,39,385534
1,40,386106
1,41,387154
1,42,387898
1,43,388543
1,44,389959
1,45,390389
1,46,390896
1,47,391951
1,48,392575
1,49,393553
1,50,393936
1,51,394901
1,52,395998
1,53,396482
1,54,397238
1,55,398084
1,56,399221
1,57,400060
1,58,401218
1,59,401715
1,60,402558
1,61,403586
1,62,404751
1,63,405640
1,64,406407
1,65,407280
1,66,408010
1,67,409100
1,68,409605
1,69,410425
1,70,411371
1,71,411919
1,72,411959
1,73,412422
1,74,411767
1,75,410739
1,76,408892
1,77,406929
1,78,404492
1,79,402350
1,80,399773
1,81,397472
1,82,394636
1,83,391891
1,84,388874
1,85,385709
1,86,383249
1,87,380106
1,88,377285
1,89,374259
1,90,371547
1,91,368770
1,92,366373
1,93,363726
1,94,361483
1,95,359474
1,96,357307
1,97,355053
1,98,352793
1,99,351097
1,100,348890
1,101,347367
1,102,346160
1,103,344679
1,104,343901
1,105,343283
1,106,342913
1,107,343026
1,108,343447
1,109,344085
1,110,346632
1,111,351716
1,112,358666
1,113,373241
1,114,417316
1,115,467346
1,116,494936
1,117,523336
1,118,558102
1,119,554397
1,120,520926
1,121,499124
1,122,481902
1,123,446666
1,124,411263
1,125,390918
1,126,379760
1,127,368931
1,128,359153
1,129,355108
1,130,353059
1,131,350307
1,132,347935
1,133,347375
1,134,346676
1,135,344600
1,136,343700
1,137,342755
1,138,341580
1,139,340749
1,140,339825
1,141,338996
1,142,338325
1,143,338169
1,144,337379
1,145,336941
1,146,336696
1,147,336632
1,148,336192
1,149,336104
1,150,336023
1,151,335959
1,152,335567
1,153,335460
1,154,335568
1,155,335417
1,156,335208
1,157,335190
1,158,335220
1,159,335204
1,160,335149
1,161,335286
1,162,335229
1,163,335304
1,164,335141
1,165,335401
1,166,335540
1,167,335503
1,168,335315
1,169,335535
1,170,335616
1,171,335513
1,172,335456
1,173,335765
1,174,335859
1,175,335887
1,176,336207
1,177,336213
1,178,336363
1,179,336720
1,180,336755
1,181,337084
1,182,337359
1,183,337961
1,184,338372
1,185,338798
1,186,339620
1,187,340670
1,188,341781
1,189,343861
1,190,346669
1,191,350282
1,192,354313
1,193,361536
1,194,371024
1,195,382481
1,196,401947
1,197,426987
1,198,453041
1,199,471897
1,200,482944
1,201,488534
1,202,478713
1,203,469247
1,204,460435
1,205,449111
1,206,433957
1,207,427581
1,208,422331
1,209,420671
1,210,419051
1,211,420830
1,212,425233
1,213,430232
1,214,436111
1,215,442246
1,216,447806
1,217,453693
1,218,461417
1,219,469497
1,220,478468
1,221,487564
1,222,495919
1,223,502675
1,224,508426
1,225,513689
1,226,519996
1,227,528088
1,228,537496
1,229,547105
1,230,556353
1,231,564045
1,232,570037
1,233,575075
1,234,580434
1,235,586047
1,236,593192
1,237,601416
1,238,610329
1,239,618530
1,240,627165
1,241,634131
1,242,638926
1,243,644005
1,244,648949
1,245,655267
1,246,662055
1,247,670619
1,248,679806
1,249,689073
1,250,696640
1,251,702350
1,252,708274
1,253,713645
1,254,718691
1,255,725458
1,256,732245
1,257,740393
1,258,749738
1,259,758026
1,260,765559
1,261,772761
1,262,778267
1,263,783873
1,264,789459
1,265,795923
1,266,801698
1,267,809639
1,268,817519
1,269,825141
1,270,832537
1,271,839111
1,272,844161
1,273,849716
1,274,854689
1,275,861015
1,276,867319
1,277,873447
1,278,880305
1,279,886202
1,280,892384
1,281,898138
1,282,902344
1,283,906908
1,284,911134
1,285,916874
1,286,921705
1,287,927034
1,288,932335
1,289,938000
1,290,943772
1,291,949744
1,292,955516
1,293,958446
1,294,963394
1,295,968529
1,296,972728
1,297,978381
1,298,983391
1,299,988706
1,300,992753
1,301,997882
1,302,1.00258e+006
1,303,1.00647e+006
1,304,1.01131e+006
1,305,1.01602e+006
1,306,1.02051e+006
1,307,1.0243e+006
1,308,1.02821e+006
1,309,1.03255e+006
1,310,1.03602e+006
1,311,1.04083e+006
1,312,1.0457e+006
1,313,1.05026e+006
1,314,1.05461e+006
1,315,1.05831e+006
1,316,1.06131e+006
1,317,1.06599e+006
1,318,1.0709e+006
1,319,1.0745e+006
1,320,1.07934e+006
1,321,1.08396e+006
1,322,1.08814e+006
1,323,1.09152e+006
1,324,1.09795e+006
1,325,1.10188e+006
1,326,1.10598e+006
1,327,1.11039e+006
1,328,1.11496e+006
1,329,1.11817e+006
1,330,1.12412e+006
1,331,1.12849e+006
1,332,1.13349e+006
1,333,1.13901e+006
1,334,1.14204e+006
1,335,1.14659e+006
1,336,1.15162e+006
1,337,1.15604e+006
1,338,1.16167e+006
1,339,1.16602e+006
1,340,1.17007e+006
1,341,1.1766e+006
1,342,1.1821e+006
1,343,1.18665e+006
1,344,1.19258e+006
1,345,1.19703e+006
1,346,1.20272e+006
1,347,1.20886e+006
1,348,1.21387e+006
1,349,1.22017e+006
1,350,1.22679e+006
1,351,1.23045e+006
1,352,1.23836e+006
1,353,1.24261e+006
1,354,1.24935e+006
1,355,1.25583e+006
1,356,1.26277e+006
1,357,1.26844e+006
1,358,1.27523e+006
1,359,1.28151e+006
1,360,1.28775e+006
1,361,1.29512e+006
1,362,1.30211e+006
1,363,1.30828e+006
1,364,1.31615e+006
1,365,1.32365e+006
1,366,1.33096e+006
1,367,1.33839e+006
1,368,1.3484e+006
1,369,1.35464e+006
1,370,1.36222e+006
1,371,1.37072e+006
1,372,1.37982e+006
1,373,1.38751e+006
1,374,1.39623e+006
1,375,1.40344e+006
1,376,1.41304e+006
1,377,1.42049e+006
1,378,1.42952e+006
1,379,1.4388e+006
1,380,1.44714e+006
1,381,1.45642e+006
1,382,1.46517e+006
1,383,1.4742e+006
1,384,1.48559e+006
1,385,1.49357e+006
1,386,1.50238e+006
1,387,1.51115e+006
1,388,1.52066e+006
1,389,1.53199e+006
1,390,1.54061e+006
1,391,1.55208e+006
1,392,1.56254e+006
1,393,1.57196e+006
1,394,1.58294e+006
1,395,1.59447e+006
1,396,1.60237e+006
1,397,1.6151e+006
1,398,1.62457e+006
1,399,1.63613e+006
1,400,1.64634e+006
1,401,1.6567e+006
1,402,1.66812e+006
1,403,1.68069e+006
1,404,1.69097e+006
1,405,1.70375e+006
1,406,1.71474e+006
1,407,1.72532e+006
1,408,1.7362e+006
1,409,1.74888e+006
1,410,1.75909e+006
1,411,1.77056e+006
1,412,1.78152e+006
1,413,1.79305e+006
1,414,1.80618e+006
1,415,1.81737e+006
1,416,1.83047e+006
1,417,1.83914e+006
1,418,1.84989e+006
1,419,1.86226e+006
1,420,1.87412e+006
1,421,1.88565e+006
1,422,1.89769e+006
1,423,1.91049e+006
1,424,1.92252e+006
1,425,1.93337e+006
1,426,1.94516e+006
1,427,1.95686e+006
1,428,1.96716e+006
1,429,1.97954e+006
1,430,1.98913e+006
1,431,1.99948e+006
1,432,2.01242e+006
1,433,2.02444e+006
1,434,2.03654e+006
1,435,2.04472e+006
1,436,2.05766e+006
1,437,2.06763e+006
1,438,2.07811e+006
1,439,2.08803e+006
1,440,2.1025e+006
1,441,2.11309e+006
1,442,2.12574e+006
1,443,2.13603e+006
1,444,2.14519e+006
1,445,2.1561e+006
1,446,2.16718e+006
1,447,2.17813e+006
1,448,2.18873e+006
1,449,2.19926e+006
1,450,2.20856e+006
1,451,2.22162e+006
1,452,2.23126e+006
1,453,2.24164e+006
1,454,2.2524e+006
1,455,2.26058e+006
1,456,2.2712e+006
1,457,2.28108e+006
1,458,2.29119e+006
1,459,2.30073e+006
1,460,2.30953e+006
1,461,2.31962e+006
1,462,2.3297e+006
1,463,2.33855e+006
1,464,2.34904e+006
1,465,2.3585e+006
1,466,2.36855e+006
1,467,2.37951e+006
1,468,2.38983e+006
1,469,2.39748e+006
1,470,2.40693e+006
1,471,2.41576e+006
1,472,2.42775e+006
1,473,2.43569e+006
1,474,2.44415e+006
1,475,2.45469e+006
1,476,2.46195e+006
1,477,2.47299e+006
1,478,2.48224e+006
1,479,2.49001e+006
1,480,2.49982e+006
1,481,2.51015e+006
1,482,2.51743e+006
1,483,2.52623e+006
1,484,2.53504e+006
1,485,2.54205e+006
1,486,2.55277e+006
1,487,2.56089e+006
1,488,2.56849e+006
1,489,2.57937e+006
1,490,2.58787e+006
1,491,2.59611e+006
1,492,2.60454e+006
1,493,2.61231e+006
1,494,2.62544e+006
1,495,2.6345e+006
1,496,2.64354e+006
1,497,2.65362e+006
1,498,2.66166e+006
1,499,2.67295e+006
1,500,2.68289e+006
1,501,2.69044e+006
1,502,2.69904e+006
1,503,2.70964e+006
1,504,2.72014e+006
1,505,2.72847e+006
1,506,2.73855e+006
1,507,2.74717e+006
1,508,2.75731e+006
1,509,2.76854e+006
1,510,2.7774e+006
1,511,2.78714e+006
1,512,2.79468e+006
1,513,2.80372e+006
1,514,2.81487e+006
1,515,2.82416e+006
1,516,2.83387e+006
1,517,2.84573e+006
1,518,2.85909e+006
1,519,2.86625e+006
1,520,2.87747e+006
1,521,2.88765e+006
1,522,2.89561e+006
1,523,2.90845e+006
1,524,2.92149e+006
1,525,2.93114e+006
1,526,2.94353e+006
1,527,2.95386e+006
1,528,2.96627e+006
1,529,2.98002e+006
1,530,2.98936e+006
1,531,3.00072e+006
1,532,3.01123e+006
1,533,3.0217e+006
1,534,3.03374e+006
1,535,3.04365e+006
1,536,3.05668e+006
1,537,3.06967e+006
1,538,3.0812e+006
1,539,3.09409e+006
1,540,3.10401e+006
1,541,3.11561e+006
1,542,3.12728e+006
1,543,3.14026e+006
1,544,3.15335e+006
1,545,3.16849e+006
1,546,3.18138e+006
1,547,3.19028e+006
1,548,3.20608e+006
1,549,3.21811e+006
1,550,3.22899e+006
1,551,3.24289e+006
1,552,3.25374e+006
1,553,3.26839e+006
1,554,3.28091e+006
1,555,3.29229e+006
1,556,3.30507e+006
1,557,3.31818e+006
1,558,3.33162e+006
1,559,3.34525e+006
1,560,3.35541e+006
1,561,3.36921e+006
1,562,3.3833e+006
1,563,3.39091e+006
1,564,3.40576e+006
1,565,3.41442e+006
1,566,3.43098e+006
1,567,3.44048e+006
1,568,3.45336e+006
1,569,3.4653e+006
1,570,3.47951e+006
1,571,3.48998e+006
1,572,3.50501e+006
1,573,3.51305e+006
1,574,3.52834e+006
1,575,3.53949e+006
1,576,3.55171e+006
1,577,3.56317e+006
1,578,3.57657e+006
1,579,3.58597e+006
1,580,3.59607e+006
1,581,3.61145e+006
1,582,3.61892e+006
1,583,3.63091e+006
1,584,3.64473e+006
1,585,3.65501e+006
1,586,3.6654e+006
1,587,3.67553e+006
1,588,3.68642e+006
1,589,3.69497e+006
1,590,3.70385e+006
1,591,3.71381e+006
1,592,3.7266e+006
1,593,3.73538e+006
1,594,3.74469e+006
1,595,3.75353e+006
1,596,3.76421e+006
1,597,3.77364e+006
1,598,3.77863e+006
1,599,3.78731e+006
1,600,3.79639e+006
1,601,3.80512e+006
1,602,3.81174e+006
1,603,3.81869e+006
1,604,3.82809e+006
1,605,3.83464e+006
1,606,3.84528e+006
1,607,3.84753e+006
1,608,3.85262e+006
1,609,3.86163e+006
1,610,3.86541e+006
1,611,3.87165e+006
1,612,3.87449e+006
1,613,3.88201e+006
1,614,3.88412e+006
1,615,3.88896e+006
1,616,3.89178e+006
1,617,3.89317e+006
1,618,3.89903e+006
1,619,3.90031e+006
1,620,3.90482e+006
1,621,3.90751e+006
1,622,3.9126e+006
1,623,3.91345e+006
1,624,3.91423e+006
1,625,3.91967e+006
1,626,3.91846e+006
1,627,3.91875e+006
1,628,3.91871e+006
1,629,3.92047e+006
1,630,3.9184e+006
1,631,3.92017e+006
1,632,3.91981e+006
1,633,3.91648e+006
1,634,3.91497e+006
1,635,3.91207e+006
1,636,3.91194e+006
1,637,3.90933e+006
1,638,3.90602e+006
1,639,3.90403e+006
1,640,3.90094e+006
1,641,3.89233e+006
1,642,3.8876e+006
1,643,3.88801e+006
1,644,3.88342e+006
1,645,3.88057e+006
1,646,3.87444e+006
1,647,3.87132e+006
1,648,3.86568e+006
1,649,3.85651e+006
1,650,3.85791e+006
1,651,3.8471e+006
1,652,3.84272e+006
1,653,3.83691e+006
1,654,3.82753e+006
1,655,3.81892e+006
1,656,3.814e+006
1,657,3.80743e+006
1,658,3.79628e+006
1,659,3.78712e+006
1,660,3.78108e+006
1,661,3.77104e+006
1,662,3.76238e+006
1,663,3.75397e+006
1,664,3.74357e+006
1,665,3.73154e+006
1,666,3.72027e+006
1,667,3.71135e+006
1,668,3.69828e+006
1,669,3.68948e+006
1,670,3.67689e+006
1,671,3.66428e+006
1,672,3.65461e+006
1,673,3.64396e+006
1,674,3.63293e+006
1,675,3.61976e+006
1,676,3.60956e+006
1,677,3.59723e+006
1,678,3.58628e+006
1,679,3.57221e+006
1,680,3.55822e+006
1,681,3.54551e+006
1,682,3.53231e+006
1,683,3.52037e+006
1,684,3.49997e+006
1,685,3.49458e+006
1,686,3.47742e+006
1,687,3.46451e+006
1,688,3.4484e+006
1,689,3.43474e+006
1,690,3.42031e+006
1,691,3.40473e+006
1,692,3.38906e+006
1,693,3.37088e+006
1,694,3.35443e+006
1,695,3.34143e+006
1,696,3.3252e+006
1,697,3.31013e+006
1,698,3.29464e+006
1,699,3.2786e+006
1,700,3.26503e+006
1,701,3.24921e+006
1,702,3.23531e+006
1,703,3.21781e+006
1,704,3.20324e+006
1,705,3.18618e+006
1,706,3.1705e+006
1,707,3.15536e+006
1,708,3.13829e+006
1,709,3.12358e+006
1,710,3.10689e+006
1,711,3.08913e+006
1,712,3.07172e+006
1,713,3.05876e+006
1,714,3.04034e+006
1,715,3.02562e+006
1,716,3.009e+006
1,717,2.99007e+006
1,718,2.97181e+006
1,719,2.95675e+006
1,720,2.94285e+006
1,721,2.92316e+006
1,722,2.90839e+006
1,723,2.89358e+006
1,724,2.87715e+006
1,725,2.86344e+006
1,726,2.84709e+006
1,727,2.83292e+006
1,728,2.81623e+006
1,729,2.80071e+006
1,730,2.78211e+006
1,731,2.77069e+006
1,732,2.75711e+006
1,733,2.73833e+006
1,734,2.7246e+006
1,735,2.70918e+006
1,736,2.69288e+006
1,737,2.67798e+006
1,738,2.66418e+006
1,739,2.64952e+006
1,740,2.63511e+006
1,741,2.62179e+006
1,742,2.60609e+006
1,743,2.58829e+006
1,744,2.57427e+006
1,745,2.56016e+006
1,746,2.5466e+006
1,747,2.52962e+006
1,748,2.51616e+006
1,749,2.50314e+006
1,750,2.48913e+006
1,751,2.47673e+006
1,752,2.46295e+006
1,753,2.44988e+006
1,754,2.43758e+006
1,755,2.42287e+006
1,756,2.411e+006
1,757,2.39886e+006
1,758,2.38649e+006
1,759,2.37405e+006
1,760,2.36173e+006
1,761,2.34928e+006
1,762,2.3351e+006
1,763,2.32347e+006
1,764,2.31202e+006
1,765,2.3003e+006
1,766,2.28615e+006
1,767,2.27467e+006
1,768,2.26294e+006
1,769,2.24952e+006
1,770,2.23714e+006
1,771,2.22536e+006
1,772,2.21601e+006
1,773,2.20368e+006
1,774,2.19377e+006
1,775,2.18322e+006
1,776,2.17085e+006
1,777,2.16007e+006
1,778,2.15005e+006
1,779,2.13976e+006
1,780,2.12864e+006
1,781,2.11909e+006
1,782,2.11055e+006
1,783,2.09808e+006
1,784,2.08877e+006
1,785,2.07765e+006
1,786,2.0694e+006
1,787,2.05865e+006
1,788,2.04887e+006
1,789,2.04071e+006
1,790,2.02991e+006
1,791,2.02133e+006
1,792,2.01524e+006
1,793,2.00639e+006
1,794,1.99662e+006
1,795,1.98788e+006
1,796,1.98003e+006
1,797,1.97222e+006
1,798,1.96407e+006
1,799,1.95597e+006
1,800,1.94923e+006
1,801,1.94247e+006
1,802,1.93273e+006
1,803,1.92404e+006
1,804,1.91659e+006
1,805,1.90868e+006
1,806,1.89991e+006
1,807,1.89199e+006
1,808,1.88417e+006
1,809,1.87754e+006
1,810,1.86753e+006
1,811,1.8587e+006
1,812,1.85114e+006
1,813,1.84277e+006
1,814,1.83477e+006
1,815,1.82777e+006
1,816,1.81968e+006
1,817,1.81353e+006
1,818,1.80543e+006
1,819,1.79697e+006
1,820,1.7905e+006
1,821,1.78499e+006
1,822,1.77853e+006
1,823,1.77331e+006
1,824,1.76794e+006
1,825,1.7621e+006
1,826,1.75778e+006
1,827,1.75123e+006
1,828,1.74653e+006
1,829,1.73894e+006
1,830,1.73303e+006
1,831,1.72566e+006
1,832,1.71873e+006
1,833,1.71059e+006
1,834,1.70487e+006
1,835,1.69768e+006
1,836,1.69049e+006
1,837,1.68397e+006
1,838,1.6788e+006
1,839,1.67237e+006
1,840,1.66766e+006
1,841,1.66033e+006
1,842,1.65448e+006
1,843,1.64798e+006
1,844,1.64208e+006
1,845,1.63627e+006
1,846,1.63008e+006
1,847,1.62341e+006
1,848,1.6177e+006
1,849,1.61382e+006
1,850,1.60881e+006
1,851,1.60442e+006
1,852,1.60023e+006
1,853,1.59419e+006
1,854,1.58886e+006
1,855,1.58396e+006
1,856,1.57933e+006
1,857,1.57658e+006
1,858,1.57139e+006
1,859,1.56687e+006
1,860,1.56122e+006
1,861,1.5573e+006
1,862,1.55183e+006
1,863,1.54782e+006
1,864,1.54253e+006
1,865,1.53937e+006
1,866,1.53498e+006
1,867,1.53122e+006
1,868,1.52813e+006
1,869,1.52306e+006
1,870,1.51831e+006
1,871,1.5147e+006
1,872,1.51076e+006
1,873,1.50631e+006
1,874,1.50114e+006
1,875,1.49804e+006
1,876,1.49391e+006
1,877,1.49033e+006
1,878,1.48673e+006
1,879,1.48255e+006
1,880,1.48088e+006
1,881,1.4759e+006
1,882,1.47321e+006
1,883,1.46905e+006
1,884,1.46411e+006
1,885,1.46097e+006
1,886,1.45826e+006
1,887,1.45389e+006
1,888,1.45256e+006
1,889,1.44813e+006
1,890,1.4464e+006
1,891,1.44447e+006
1,892,1.44032e+006
1,893,1.43715e+006
1,894,1.43392e+006
1,895,1.42966e+006
1,896,1.42647e+006
1,897,1.422e+006
1,898,1.42032e+006
1,899,1.41833e+006
1,900,1.41444e+006
1,901,1.41265e+006
1,902,1.40947e+006
1,903,1.40605e+006
1,904,1.4047e+006
1,905,1.40221e+006
1,906,1.40109e+006
1,907,1.39828e+006
1,908,1.39608e+006
1,909,1.39462e+006
1,910,1.39399e+006
1,911,1.39286e+006
1,912,1.39229e+006
1,913,1.39274e+006
1,914,1.39115e+006
1,915,1.39383e+006
1,916,1.39296e+006
1,917,1.39245e+006
1,918,1.39188e+006
1,919,1.38973e+006
1,920,1.38683e+006
1,921,1.38584e+006
1,922,1.38024e+006
1,923,1.37618e+006
1,924,1.37289e+006
1,925,1.37059e+006
1,926,1.36659e+006
1,927,1.36347e+006
1,928,1.36078e+006
1,929,1.35808e+006
1,930,1.35502e+006
1,931,1.35328e+006
1,932,1.34846e+006
1,933,1.34634e+006
1,934,1.34165e+006
1,935,1.33846e+006
1,936,1.33616e+006
1,937,1.33401e+006
1,938,1.33013e+006
1,939,1.32676e+006
1,940,1.32303e+006
1,941,1.32019e+006
1,942,1.31759e+006
1,943,1.31403e+006
1,944,1.31199e+006
1,945,1.309e+006
1,946,1.30675e+006
1,947,1.3055e+006
1,948,1.30167e+006
1,949,1.30012e+006
1,950,1.29864e+006
1,951,1.29659e+006
1,952,1.29519e+006
1,953,1.2923e+006
1,954,1.29108e+006
1,955,1.28995e+006
1,956,1.28749e+006
1,957,1.28595e+006
1,958,1.28438e+006
1,959,1.28276e+006
1,960,1.27993e+006
1,961,1.27929e+006
1,962,1.27639e+006
1,963,1.27529e+006
1,964,1.2737e+006
1,965,1.27135e+006
1,966,1.2706e+006
1,967,1.26887e+006
1,968,1.26858e+006
1,969,1.2667e+006
1,970,1.265e+006
1,971,1.26308e+006
1,972,1.26161e+006
1,973,1.26004e+006
1,974,1.25882e+006
1,975,1.25736e+006
1,976,1.25599e+006
1,977,1.25461e+006
1,978,1.25249e+006
1,979,1.25199e+006
1,980,1.25034e+006
1,981,1.25027e+006
1,982,1.24837e+006
1,983,1.24684e+006
1,984,1.24585e+006
1,985,1.24621e+006
1,986,1.24407e+006
1,987,1.24378e+006
1,988,1.24292e+006
1,989,1.23996e+006
1,990,1.24067e+006
1,991,1.2393e+006
1,992,1.23772e+006
1,993,1.23641e+006
1,994,1.23563e+006
1,995,1.23348e+006
1,996,1.23373e+006
1,997,1.23325e+006
1,998,1.23103e+006
1,999,1.23106e+006
1,1000,1.22827e+006
1,1001,1.22827e+006
1,1002,1.22714e+006
1,1003,1.22612e+006
1,1004,1.22576e+006
1,1005,1.226e+006
1,1006,1.22326e+006
1,1007,1.2237e+006
1,1008,1.22136e+006
1,1009,1.22123e+006
1,1010,1.22056e+006
1,1011,1.21925e+006
1,1012,1.21815e+006
1,1013,1.2173e+006
1,1014,1.21691e+006
1,1015,1.21419e+006
1,1016,1.21501e+006
1,1017,1.21579e+006
1,1018,1.21259e+006
1,1019,1.213e+006
1,1020,1.21216e+006
1,1021,1.20978e+006
1,1022,1.20982e+006
1,1023,1.20745e+006
1,1024,1.20642e+006
1,1025,1.20626e+006
1,1026,1.205e+006
1,1027,1.20488e+006
1,1028,1.20256e+006
1,1029,1.20254e+006
1,1030,1.20193e+006
1,1031,1.20125e+006
1,1032,1.20062e+006
1,1033,1.19966e+006
1,1034,1.19978e+006
1,1035,1.19789e+006
1,1036,1.19632e+006
1,1037,1.19704e+006
1,1038,1.19661e+006
1,1039,1.19524e+006
1,1040,1.19424e+006
1,1041,1.19429e+006
1,1042,1.19239e+006
1,1043,1.19156e+006
1,1044,1.19105e+006
1,1045,1.19115e+006
1,1046,1.1908e+006
1,1047,1.19009e+006
1,1048,1.19051e+006
1,1049,1.18875e+006
1,1050,1.1879e+006
1,1051,1.18803e+006
1,1052,1.18711e+006
1,1053,1.18741e+006
1,1054,1.18749e+006
1,1055,1.18715e+006
1,1056,1.18644e+006
1,1057,1.18718e+006
1,1058,1.18623e+006
1,1059,1.18626e+006
1,1060,1.18628e+006
1,1061,1.18678e+006
1,1062,1.18742e+006
1,1063,1.18825e+006
1,1064,1.18923e+006
1,1065,1.19196e+006
1,1066,1.19344e+006
1,1067,1.19817e+006
1,1068,1.19968e+006
1,1069,1.20172e+006
1,1070,1.20353e+006
1,1071,1.2051e+006
1,1072,1.20621e+006
1,1073,1.20505e+006
1,1074,1.20231e+006
1,1075,1.19714e+006
1,1076,1.19306e+006
1,1077,1.18766e+006
1,1078,1.18307e+006
1,1079,1.17867e+006
1,1080,1.17409e+006
1,1081,1.17093e+006
1,1082,1.16877e+006
1,1083,1.16454e+006
1,1084,1.16389e+006
1,1085,1.16245e+006
1,1086,1.15951e+006
1,1087,1.1597e+006
1,1088,1.15706e+006
1,1089,1.15729e+006
1,1090,1.15489e+006
1,1091,1.15295e+006
1,1092,1.15246e+006
1,1093,1.15269e+006
1,1094,1.15085e+006
1,1095,1.15026e+006
1,1096,1.14934e+006
1,1097,1.14871e+006
1,1098,1.14646e+006
1,1099,1.14582e+006
1,1100,1.14522e+006
1,1101,1.14395e+006
1,1102,1.14334e+006
1,1103,1.14307e+006
1,1104,1.14245e+006
1,1105,1.14066e+006
1,1106,1.1404e+006
1,1107,1.13947e+006
1,1108,1.13764e+006
1,1109,1.13784e+006
1,1110,1.13643e+006
1,1111,1.13572e+006
1,1112,1.13574e+006
1,1113,1.13306e+006
1,1114,1.134e+006
1,1115,1.13254e+006
1,1116,1.13107e+006
1,1117,1.13117e+006
1,1118,1.13001e+006
1,1119,1.1291e+006
1,1120,1.12886e+006
1,1121,1.12798e+006
1,1122,1.12777e+006
1,1123,1.12762e+006
1,1124,1.12622e+006
1,1125,1.12498e+006
1,1126,1.12287e+006
1,1127,1.12332e+006
1,1128,1.1225e+006
1,1129,1.12322e+006
1,1130,1.12262e+006
1,1131,1.12142e+006
1,1132,1.12157e+006
1,1133,1.12015e+006
1,1134,1.11984e+006
1,1135,1.12047e+006
1,1136,1.1196e+006
1,1137,1.1188e+006
1,1138,1.11768e+006
1,1139,1.11646e+006
1,1140,1.11604e+006
1,1141,1.11459e+006
1,1142,1.11403e+006
1,1143,1.11284e+006
1,1144,1.11109e+006
1,1145,1.10951e+006
1,1146,1.10887e+006
1,1147,1.10672e+006
1,1148,1.10593e+006
1,1149,1.10373e+006
1,1150,1.10172e+006
1,1151,1.10107e+006
1,1152,1.09906e+006
1,1153,1.09957e+006
1,1154,1.0966e+006
1,1155,1.09673e+006
1,1156,1.0955e+006
1,1157,1.09407e+006
1,1158,1.09279e+006
1,1159,1.09199e+006
1,1160,1.09039e+006
1,1161,1.08957e+006
1,1162,1.08851e+006
1,1163,1.08746e+006
1,1164,1.08812e+006
1,1165,1.08674e+006
1,1166,1.08579e+006
1,1167,1.08354e+006
1,1168,1.08318e+006
1,1169,1.08224e+006
1,1170,1.08124e+006
1,1171,1.08047e+006
1,1172,1.07857e+006
1,1173,1.07903e+006
1,1174,1.07779e+006
1,1175,1.07636e+006
1,1176,1.07492e+006
1,1177,1.07407e+006
1,1178,1.07272e+006
1,1179,1.07165e+006
1,1180,1.07049e+006
1,1181,1.06946e+006
1,1182,1.06798e+006
1,1183,1.0668e+006
1,1184,1.06609e+006
1,1185,1.06536e+006
1,1186,1.06531e+006
1,1187,1.0645e+006
1,1188,1.06304e+006
1,1189,1.06187e+006
1,1190,1.06054e+006
1,1191,1.05927e+006
1,1192,1.05903e+006
1,1193,1.05785e+006
1,1194,1.05697e+006
1,1195,1.05427e+006
1,1196,1.0541e+006
1,1197,1.05287e+006
1,1198,1.05229e+006
1,1199,1.05066e+006
1,1200,1.04966e+006
1,1201,1.04849e+006
1,1202,1.04788e+006
1,1203,1.04696e+006
1,1204,1.04599e+006
1,1205,1.04445e+006
1,1206,1.04348e+006
1,1207,1.04308e+006
1,1208,1.04157e+006
1,1209,1.04112e+006
1,1210,1.03953e+006
1,1211,1.03806e+006
1,1212,1.03685e+006
1,1213,1.0358e+006
1,1214,1.03426e+006
1,1215,1.03422e+006
1,1216,1.03322e+006
1,1217,1.03215e+006
1,1218,1.03184e+006
1,1219,1.03062e+006
1,1220,1.02761e+006
1,1221,1.02766e+006
1,1222,1.02618e+006
1,1223,1.02409e+006
1,1224,1.02285e+006
1,1225,1.02087e+006
1,1226,1.0196e+006
1,1227,1.01767e+006
1,1228,1.01571e+006
1,1229,1.01475e+006
1,1230,1.01214e+006
1,1231,1.01004e+006
1,1232,1.00818e+006
1,1233,1.00632e+006
1,1234,1.00399e+006
1,1235,1.00232e+006
1,1236,999511
1,1237,996510
1,1238,993509
1,1239,991951
1,1240,989070
1,1241,988024
1,1242,984110
1,1243,982111
1,1244,979787
1,1245,976729
1,1246,973654
1,1247,972067
1,1248,968202
1,1249,965665
1,1250,962650
1,1251,960286
1,1252,957204
1,1253,954009
1,1254,950940
1,1255,947772
1,1256,944927
1,1257,941475
1,1258,939123
1,1259,935910
1,1260,933679
1,1261,930539
1,1262,927613
1,1263,925062
1,1264,921832
1,1265,919623
1,1266,917307
1,1267,914392
1,1268,911501
1,1269,907872
1,1270,905561
1,1271,902267
1,1272,897946
1,1273,895594
1,1274,892358
1,1275,889230
1,1276,885822
1,1277,881634
1,1278,877424
1,1279,873600
1,1280,868927
1,1281,866095
1,1282,861494
1,1283,857507
1,1284,854862
1,1285,849700
1,1286,845733
1,1287,841531
1,1288,837329
1,1289,832861
1,1290,829031
1,1291,824522
1,1292,820376
1,1293,815542
1,1294,811439
1,1295,806973
1,1296,802981
1,1297,797237
1,1298,792985
1,1299,788334
1,1300,784321
1,1301,778886
1,1302,774030
1,1303,769825
1,1304,764807
1,1305,760663
1,1306,754658
1,1307,750072
1,1308,744334
1,1309,739853
1,1310,735009
1,1311,730482
1,1312,725668
1,1313,720826
1,1314,715300
1,1315,710654
1,1316,705686
1,1317,701079
1,1318,696668
1,1319,692742
1,1320,687222
1,1321,682258
1,1322,677770
1,1323,672534
1,1324,667215
1,1325,662431
1,1326,658008
1,1327,652641
1,1328,648472
1,1329,643951
1,1330,638747
1,1331,633877
1,1332,629059
1,1333,623846
1,1334,619719
1,1335,615040
1,1336,611017
1,1337,605713
1,1338,600195
1,1339,594884
1,1340,629822
