1,1,81103
1,2,80933
1,3,81188
1,4,81037
1,5,80903
1,6,81118
1,7,80952
1,8,81063
1,9,81105
1,10,80724
1,11,80694
1,12,80822
1,13,80872
1,14,80955
1,15,81074
1,16,80829
1,17,80868
1,18,81031
1,19,81086
1,20,80726
1,21,80705
1,22,80801
1,23,81107
1,24,81001
1,25,80646
1,26,80878
1,27,80750
1,28,80911
1,29,80610
1,30,80795
1,31,80988
1,32,80756
1,33,80873
1,34,80699
1,35,80778
1,36,80898
1,37,81070
1,38,80832
1,39,80844
1,40,80778
1,41,81003
1,42,80865
1,43,81231
1,44,81606
1,45,80906
1,46,81051
1,47,81158
1,48,80800
1,49,81072
1,50,80796
1,51,80751
1,52,80671
1,53,80913
1,54,80933
1,55,81035
1,56,81061
1,57,80969
1,58,81343
1,59,80875
1,60,81051
1,61,80877
1,62,81117
1,63,81182
1,64,80886
1,65,80925
1,66,80864
1,67,81057
1,68,80782
1,69,80700
1,70,80672
1,71,80855
1,72,80850
1,73,81006
1,74,81307
1,75,80909
1,76,80894
1,77,80827
1,78,80484
1,79,80717
1,80,80790
1,81,80594
1,82,80851
1,83,80391
1,84,80522
1,85,80487
1,86,80442
1,87,80697
1,88,80674
1,89,80673
1,90,80758
1,91,80424
1,92,80447
1,93,80456
1,94,80449
1,95,80504
1,96,80460
1,97,80725
1,98,80554
1,99,80401
1,100,80147
1,101,80342
1,102,80654
1,103,80237
1,104,80385
1,105,80211
1,106,80069
1,107,80277
1,108,80246
1,109,80350
1,110,80416
1,111,80311
1,112,80320
1,113,80080
1,114,80506
1,115,80074
1,116,80151
1,117,80450
1,118,80348
1,119,80332
1,120,80277
1,121,80208
1,122,80035
1,123,80198
1,124,80201
1,125,80095
1,126,80160
1,127,80324
1,128,80265
1,129,80245
1,130,80249
1,131,80304
1,132,80154
1,133,80147
1,134,80929
1,135,80268
1,136,80246
1,137,79979
1,138,80317
1,139,80234
1,140,80148
1,141,80148
1,142,80147
1,143,80187
1,144,80049
1,145,80244
1,146,79927
1,147,80155
1,148,80195
1,149,80219
1,150,80235
1,151,80379
1,152,80217
1,153,80081
1,154,80458
1,155,80391
1,156,80113
1,157,80103
1,158,80180
1,159,80464
1,160,80333
1,161,80228
1,162,80260
1,163,80178
1,164,80479
1,165,80759
1,166,80494
1,167,80420
1,168,80333
1,169,80302
1,170,80590
1,171,80542
1,172,80310
1,173,80379
1,174,80280
1,175,80268
1,176,80433
1,177,80389
1,178,80191
1,179,80432
1,180,80264
1,181,80215
1,182,80258
1,183,80227
1,184,80167
1,185,80360
1,186,80495
1,187,80293
1,188,80299
1,189,80421
1,190,80292
1,191,80550
1,192,80346
1,193,80264
1,194,80385
1,195,80492
1,196,80279
1,197,80552
1,198,80552
1,199,80657
1,200,80504
1,201,81373
1,202,80608
1,203,80408
1,204,80886
1,205,80834
1,206,80830
1,207,80947
1,208,80725
1,209,80676
1,210,80887
1,211,80862
1,212,80846
1,213,80711
1,214,81000
1,215,81069
1,216,81061
1,217,80956
1,218,81105
1,219,81190
1,220,81077
1,221,81168
1,222,81090
1,223,81442
1,224,81552
1,225,81260
1,226,81214
1,227,81327
1,228,81152
1,229,81525
1,230,81330
1,231,81311
1,232,81367
1,233,81292
1,234,81363
1,235,81345
1,236,81367
1,237,81540
1,238,81865
1,239,81320
1,240,81419
1,241,81945
1,242,81613
1,243,81557
1,244,81364
1,245,81509
1,246,81621
1,247,81645
1,248,81620
1,249,81794
1,250,81646
1,251,81797
1,252,81459
1,253,81548
1,254,81539
1,255,81681
1,256,81613
1,257,81655
1,258,81772
1,259,81703
1,260,81475
1,261,81711
1,262,81609
1,263,81444
1,264,81722
1,265,81662
1,266,81552
1,267,81585
1,268,81740
1,269,81851
1,270,81869
1,271,81689
1,272,81763
1,273,81405
1,274,81679
1,275,81897
1,276,81518
1,277,81836
1,278,81916
1,279,81622
1,280,81817
1,281,81608
1,282,82063
1,283,82260
1,284,82120
1,285,81669
1,286,81746
1,287,81850
1,288,81604
1,289,81967
1,290,81911
1,291,81677
1,292,82018
1,293,81801
1,294,81814
1,295,81675
1,296,81659
1,297,81841
1,298,82161
1,299,81890
1,300,81924
1,301,81864
1,302,81898
1,303,81971
1,304,81955
1,305,82365
1,306,81740
1,307,81842
1,308,81895
1,309,81685
1,310,82084
1,311,81718
1,312,82100
1,313,81858
1,314,82246
1,315,81749
1,316,81982
1,317,81868
1,318,81740
1,319,81774
1,320,81871
1,321,82061
1,322,81832
1,323,81830
1,324,82152
1,325,81794
1,326,82105
1,327,82075
1,328,81957
1,329,81914
1,330,82123
1,331,82136
1,332,81876
1,333,82330
1,334,82285
1,335,82028
1,336,81653
1,337,81964
1,338,82092
1,339,81882
1,340,81976
1,341,82597
1,342,82121
1,343,81982
1,344,81697
1,345,82106
1,346,82098
1,347,81957
1,348,82015
1,349,81792
1,350,81950
1,351,81925
1,352,82171
1,353,82245
1,354,81960
1,355,82369
1,356,81956
1,357,82120
1,358,82011
1,359,82139
1,360,82080
1,361,82942
1,362,82051
1,363,81958
1,364,82094
1,365,82110
1,366,82021
1,367,82158
1,368,81877
1,369,81993
1,370,82162
1,371,82180
1,372,82071
1,373,82101
1,374,81996
1,375,82193
1,376,82265
1,377,82399
1,378,82039
1,379,82225
1,380,81991
1,381,82050
1,382,82002
1,383,82446
1,384,82024
1,385,82268
1,386,82224
1,387,82052
1,388,82296
1,389,82061
1,390,82112
1,391,82213
1,392,82170
1,393,82061
1,394,82170
1,395,82211
1,396,82183
1,397,82204
1,398,81922
1,399,82002
1,400,82254
1,401,82184
1,402,82251
1,403,82373
1,404,82395
1,405,82203
1,406,82575
1,407,82304
1,408,82588
1,409,81939
1,410,82250
1,411,82331
1,412,82351
1,413,82163
1,414,82177
1,415,82299
1,416,82410
1,417,82190
1,418,82245
1,419,82182
1,420,82215
1,421,82560
1,422,82300
1,423,82189
1,424,82563
1,425,82289
1,426,82076
1,427,82339
1,428,82233
1,429,82513
1,430,82122
1,431,82343
1,432,82311
1,433,82382
1,434,82279
1,435,82149
1,436,82355
1,437,82134
1,438,82117
1,439,82142
1,440,82430
1,441,82479
1,442,82198
1,443,82300
1,444,82301
1,445,82144
1,446,82518
1,447,82438
1,448,82222
1,449,82281
1,450,82620
1,451,82489
1,452,82343
1,453,82442
1,454,82386
1,455,82478
1,456,82420
1,457,82149
1,458,82316
1,459,82641
1,460,82412
1,461,82797
1,462,82416
1,463,82316
1,464,82389
1,465,82531
1,466,82396
1,467,82354
1,468,82344
1,469,82302
1,470,82399
1,471,82682
1,472,82113
1,473,82212
1,474,82437
1,475,82328
1,476,82322
1,477,82307
1,478,82404
1,479,82801
1,480,82528
1,481,82451
1,482,82528
1,483,82431
1,484,82324
1,485,82391
1,486,82654
1,487,82534
1,488,82509
1,489,82406
1,490,82495
1,491,82407
1,492,82485
1,493,82201
1,494,82783
1,495,82818
1,496,82648
1,497,82402
1,498,82687
1,499,82212
1,500,82427
1,501,82377
1,502,82672
1,503,82565
1,504,82415
1,505,82481
1,506,82507
1,507,82793
1,508,83199
1,509,82445
1,510,82538
1,511,82307
1,512,82460
1,513,82648
1,514,82516
1,515,82425
1,516,82230
1,517,82744
1,518,82591
1,519,82563
1,520,82522
1,521,82637
1,522,82758
1,523,82490
1,524,82376
1,525,82508
1,526,82394
1,527,82394
1,528,82763
1,529,82694
1,530,82323
1,531,82435
1,532,82693
1,533,82597
1,534,82486
1,535,82757
1,536,82839
1,537,82374
1,538,82810
1,539,83024
1,540,82466
1,541,82545
1,542,82563
1,543,82565
1,544,82642
1,545,82501
1,546,82817
1,547,82568
1,548,82793
1,549,82411
1,550,82688
1,551,82772
1,552,82630
1,553,82705
1,554,82661
1,555,82813
1,556,82682
1,557,82751
1,558,82658
1,559,82585
1,560,82641
1,561,82680
1,562,82965
1,563,82562
1,564,82890
1,565,82656
1,566,82614
1,567,82658
1,568,82696
1,569,82637
1,570,82731
1,571,82805
1,572,82848
1,573,82781
1,574,82799
1,575,83374
1,576,83201
1,577,83415
1,578,82951
1,579,83096
1,580,83178
1,581,83030
1,582,83031
1,583,82881
1,584,83386
1,585,83120
1,586,83183
1,587,83298
1,588,83163
1,589,83038
1,590,82981
1,591,83021
1,592,83112
1,593,82797
1,594,82777
1,595,82830
1,596,82848
1,597,82817
1,598,82804
1,599,82671
1,600,82864
1,601,82724
1,602,82829
1,603,82392
1,604,82705
1,605,82501
1,606,82641
1,607,82745
1,608,82739
1,609,82672
1,610,82776
1,611,82665
1,612,82743
1,613,82962
1,614,82976
1,615,82792
1,616,82643
1,617,82621
1,618,82948
1,619,82910
1,620,82800
1,621,82815
1,622,82861
1,623,82712
1,624,82875
1,625,82730
1,626,82892
1,627,82712
1,628,82745
1,629,82952
1,630,82944
1,631,82800
1,632,82808
1,633,82830
1,634,82635
1,635,82813
1,636,82935
1,637,82873
1,638,82894
1,639,82906
1,640,82680
1,641,82782
1,642,83061
1,643,83050
1,644,82959
1,645,83062
1,646,82797
1,647,82898
1,648,82832
1,649,82899
1,650,82728
1,651,82857
1,652,82919
1,653,83039
1,654,83175
1,655,82953
1,656,82879
1,657,82886
1,658,83115
1,659,83020
1,660,82734
1,661,83202
1,662,83121
1,663,82925
1,664,82825
1,665,82969
1,666,82909
1,667,82913
1,668,82872
1,669,82774
1,670,83303
1,671,83195
1,672,82920
1,673,83339
1,674,82858
1,675,82872
1,676,82726
1,677,82969
1,678,83126
1,679,83366
1,680,83089
1,681,85345
1,682,82942
1,683,82942
1,684,82880
1,685,83270
1,686,82832
1,687,82808
1,688,83004
1,689,83137
1,690,82912
1,691,82923
1,692,83014
1,693,82828
1,694,82777
1,695,82935
1,696,82821
1,697,83047
1,698,83008
1,699,83221
1,700,82995
1,701,82947
1,702,82862
1,703,82973
1,704,83356
1,705,82894
1,706,83030
1,707,83239
1,708,83114
1,709,82861
1,710,82853
1,711,83092
1,712,83011
1,713,82901
1,714,83163
1,715,83184
1,716,82868
1,717,83156
1,718,83079
1,719,83093
1,720,82832
1,721,82855
1,722,83223
1,723,83305
1,724,83125
1,725,83162
1,726,82988
1,727,82749
1,728,82968
1,729,83225
1,730,82992
1,731,83064
1,732,83045
1,733,83113
1,734,82927
1,735,82967
1,736,83112
1,737,83199
1,738,82965
1,739,83068
1,740,83008
1,741,83277
1,742,83135
1,743,82825
1,744,83099
1,745,83229
1,746,83267
1,747,82925
1,748,83005
1,749,83030
1,750,83315
1,751,83420
1,752,82973
1,753,83028
1,754,83141
1,755,83204
1,756,83295
1,757,83273
1,758,83224
1,759,83052
1,760,83210
1,761,83254
1,762,83199
1,763,82901
1,764,83184
1,765,83218
1,766,83109
1,767,82992
1,768,82969
1,769,83121
1,770,82818
1,771,83043
1,772,83200
1,773,83248
1,774,83304
1,775,82938
1,776,83065
1,777,83156
1,778,83033
1,779,83083
1,780,83357
1,781,83237
1,782,83282
1,783,83209
1,784,83348
1,785,83635
1,786,83457
1,787,83142
1,788,83162
1,789,83116
1,790,83113
1,791,83408
1,792,83286
1,793,83159
1,794,83023
1,795,83253
1,796,83315
1,797,83492
1,798,83164
1,799,82872
1,800,83100
1,801,83145
1,802,83626
1,803,83309
1,804,83291
1,805,83114
1,806,83198
1,807,83324
1,808,83307
1,809,83197
1,810,83408
1,811,83531
1,812,83272
1,813,83510
1,814,83300
1,815,83445
1,816,83365
1,817,83434
1,818,83396
1,819,83501
1,820,83413
1,821,83548
1,822,83682
1,823,83625
1,824,83801
1,825,83926
1,826,84085
1,827,84370
1,828,84148
1,829,84338
1,830,84092
1,831,84188
1,832,84265
1,833,84061
1,834,84076
1,835,84258
1,836,84574
1,837,84193
1,838,84159
1,839,84147
1,840,84247
1,841,84238
1,842,84491
1,843,84201
1,844,83947
1,845,84078
1,846,83735
1,847,83478
1,848,83791
1,849,83394
1,850,83361
1,851,83614
1,852,83482
1,853,83848
1,854,83324
1,855,83293
1,856,83460
1,857,83318
1,858,83333
1,859,83212
1,860,83300
1,861,83286
1,862,83417
1,863,83429
1,864,83338
1,865,83342
1,866,83337
1,867,83416
1,868,83244
1,869,83491
1,870,83637
1,871,83411
1,872,83376
1,873,83260
1,874,83257
1,875,83439
1,876,83255
1,877,83710
1,878,83367
1,879,83469
1,880,83495
1,881,83505
1,882,83438
1,883,83269
1,884,83422
1,885,83335
1,886,83316
1,887,83348
1,888,83269
1,889,83329
1,890,83467
1,891,82985
1,892,83220
1,893,83460
1,894,83334
1,895,83310
1,896,83348
1,897,83461
1,898,83385
1,899,83465
1,900,83214
1,901,83115
1,902,83002
1,903,83408
1,904,83414
1,905,83052
1,906,83272
1,907,83376
1,908,83513
1,909,83381
1,910,83225
1,911,83429
1,912,83529
1,913,83363
1,914,83131
1,915,83185
1,916,83563
1,917,83175
1,918,83469
1,919,83584
1,920,83539
1,921,83216
1,922,83244
1,923,83337
1,924,83376
1,925,83200
1,926,83271
1,927,83387
1,928,83361
1,929,83220
1,930,83297
1,931,83524
1,932,83338
1,933,83451
1,934,83473
1,935,83386
1,936,83418
1,937,83246
1,938,83294
1,939,83304
1,940,83445
1,941,83478
1,942,83246
1,943,83575
1,944,83374
1,945,83093
1,946,83403
1,947,83459
1,948,83431
1,949,83519
1,950,83291
1,951,83439
1,952,83587
1,953,83162
1,954,83294
1,955,83674
1,956,83037
1,957,83578
1,958,83472
1,959,83627
1,960,83289
1,961,83373
1,962,83561
1,963,83547
1,964,83349
1,965,83277
1,966,83439
1,967,83324
1,968,83386
1,969,83337
1,970,83483
1,971,83365
1,972,83488
1,973,83400
1,974,83241
1,975,83234
1,976,83542
1,977,83583
1,978,83390
1,979,83393
1,980,83188
1,981,83578
1,982,83218
1,983,83215
1,984,83204
1,985,83276
1,986,83529
1,987,83551
1,988,83307
1,989,83595
1,990,83537
1,991,83371
1,992,83581
1,993,83482
1,994,83544
1,995,83365
1,996,83484
1,997,83546
1,998,83278
1,999,83539
1,1000,83483
1,1001,83612
1,1002,83512
1,1003,83315
1,1004,83439
1,1005,83260
1,1006,83425
1,1007,83759
1,1008,83581
1,1009,83636
1,1010,83572
1,1011,83412
1,1012,83414
1,1013,83551
1,1014,83198
1,1015,83473
1,1016,83284
1,1017,83760
1,1018,83317
1,1019,83372
1,1020,83622
1,1021,83518
1,1022,83341
1,1023,83660
1,1024,82992
1,1025,83445
1,1026,83617
1,1027,83508
1,1028,83373
1,1029,83648
1,1030,83501
1,1031,83527
1,1032,83458
1,1033,83327
1,1034,83874
1,1035,83383
1,1036,83440
1,1037,83570
1,1038,83737
1,1039,83354
1,1040,83442
1,1041,83464
1,1042,83515
1,1043,83481
1,1044,83489
1,1045,83323
1,1046,83362
1,1047,83625
1,1048,83495
1,1049,83405
1,1050,83408
1,1051,83305
1,1052,83849
1,1053,83628
1,1054,83716
1,1055,83791
1,1056,83465
1,1057,83684
1,1058,83352
1,1059,83850
1,1060,83357
1,1061,83509
1,1062,83460
1,1063,83582
1,1064,83443
1,1065,83480
1,1066,83664
1,1067,83361
1,1068,83736
1,1069,83649
1,1070,83460
1,1071,83618
1,1072,83854
1,1073,83691
1,1074,84176
1,1075,83926
1,1076,84081
1,1077,83938
1,1078,83983
1,1079,84105
1,1080,84286
1,1081,84185
1,1082,84373
1,1083,84295
1,1084,84467
1,1085,84288
1,1086,83962
1,1087,84074
1,1088,83911
1,1089,83906
1,1090,83985
1,1091,83921
1,1092,83790
1,1093,83664
1,1094,84021
1,1095,84525
1,1096,83831
1,1097,83432
1,1098,83882
1,1099,84021
1,1100,83955
1,1101,83970
1,1102,83957
1,1103,84402
1,1104,83761
1,1105,83673
1,1106,83502
1,1107,83752
1,1108,83476
1,1109,83655
1,1110,83755
1,1111,83513
1,1112,83331
1,1113,83650
1,1114,83451
1,1115,83691
1,1116,83464
1,1117,83440
1,1118,83375
1,1119,83515
1,1120,83709
1,1121,83562
1,1122,83528
1,1123,83443
1,1124,83767
1,1125,83578
1,1126,83638
1,1127,83377
1,1128,83503
1,1129,83788
1,1130,83715
1,1131,83502
1,1132,83540
1,1133,83299
1,1134,83607
1,1135,83412
1,1136,83383
1,1137,83534
1,1138,83323
1,1139,83808
1,1140,83456
1,1141,83418
1,1142,83840
1,1143,83401
1,1144,83515
1,1145,83604
1,1146,85054
1,1147,83369
1,1148,83537
1,1149,83455
1,1150,83504
1,1151,83620
1,1152,83581
1,1153,83566
1,1154,83533
1,1155,83667
1,1156,83557
1,1157,83443
1,1158,83811
1,1159,84000
1,1160,83539
1,1161,83302
1,1162,83314
1,1163,83263
1,1164,83730
1,1165,83810
1,1166,83414
1,1167,83304
1,1168,83443
1,1169,83614
1,1170,83485
1,1171,83530
1,1172,83450
1,1173,83527
1,1174,83515
1,1175,83264
1,1176,83449
1,1177,83514
1,1178,83448
1,1179,83416
1,1180,83362
1,1181,83552
1,1182,83755
1,1183,83881
1,1184,83405
1,1185,83616
1,1186,83531
1,1187,83933
1,1188,83641
1,1189,83644
1,1190,83527
1,1191,83594
1,1192,83640
1,1193,83577
1,1194,83793
1,1195,83367
1,1196,83467
1,1197,83636
1,1198,83374
1,1199,83509
1,1200,83534
1,1201,83513
1,1202,83341
1,1203,83398
1,1204,83513
1,1205,83407
1,1206,83363
1,1207,83270
1,1208,83699
1,1209,83457
1,1210,83322
1,1211,83777
1,1212,83825
1,1213,83385
1,1214,83421
1,1215,83231
1,1216,83434
1,1217,83538
1,1218,83429
1,1219,83793
1,1220,83611
1,1221,83505
1,1222,83908
1,1223,83924
1,1224,83652
1,1225,83205
1,1226,83686
1,1227,83532
1,1228,83398
1,1229,83618
1,1230,83563
1,1231,83378
1,1232,83706
1,1233,83679
1,1234,83407
1,1235,83563
1,1236,83587
1,1237,83551
1,1238,83443
1,1239,83402
1,1240,83749
1,1241,83542
1,1242,83719
1,1243,83396
1,1244,83522
1,1245,83474
1,1246,83248
1,1247,83794
1,1248,83446
1,1249,83573
1,1250,83408
1,1251,83707
1,1252,83583
1,1253,83814
1,1254,83586
1,1255,83726
1,1256,83647
1,1257,83942
1,1258,83815
1,1259,83676
1,1260,83749
1,1261,83651
1,1262,83712
1,1263,83477
1,1264,83587
1,1265,83822
1,1266,83777
1,1267,83494
1,1268,83744
1,1269,83712
1,1270,83223
1,1271,83579
1,1272,83459
1,1273,83385
1,1274,83543
1,1275,83415
1,1276,83469
1,1277,83529
1,1278,83505
1,1279,83485
1,1280,83892
1,1281,83666
1,1282,83330
1,1283,83478
1,1284,83453
1,1285,83505
1,1286,83507
1,1287,83366
1,1288,83438
1,1289,83402
1,1290,83284
1,1291,83290
1,1292,83174
1,1293,83577
1,1294,83138
1,1295,83310
1,1296,83216
1,1297,83253
1,1298,83196
1,1299,83238
1,1300,83149
1,1301,83042
1,1302,83146
1,1303,83268
1,1304,83498
1,1305,83495
1,1306,83256
1,1307,83098
1,1308,83209
1,1309,82865
1,1310,82864
1,1311,83238
1,1312,83163
1,1313,83307
1,1314,82955
1,1315,83047
1,1316,83243
1,1317,82833
1,1318,83061
1,1319,83173
1,1320,83232
1,1321,83090
1,1322,82870
1,1323,82804
1,1324,82924
1,1325,82833
1,1326,82986
1,1327,82996
1,1328,83025
1,1329,82817
1,1330,82599
1,1331,82533
1,1332,82560
1,1333,82352
1,1334,82324
1,1335,82433
1,1336,82612
1,1337,82591
1,1338,82220
1,1339,80967
1,1340,121868
