1,1,77405
1,2,77550
1,3,77460
1,4,77404
1,5,77512
1,6,77483
1,7,77539
1,8,77374
1,9,77427
1,10,77515
1,11,77497
1,12,77527
1,13,77381
1,14,77478
1,15,77331
1,16,77442
1,17,77511
1,18,77495
1,19,77435
1,20,77543
1,21,77431
1,22,77421
1,23,77459
1,24,77472
1,25,77363
1,26,77444
1,27,77456
1,28,77528
1,29,77528
1,30,77542
1,31,77320
1,32,77401
1,33,77479
1,34,77317
1,35,77548
1,36,77481
1,37,77491
1,38,77384
1,39,77538
1,40,77548
1,41,77583
1,42,77510
1,43,77541
1,44,77431
1,45,77489
1,46,77640
1,47,77483
1,48,77421
1,49,77385
1,50,77400
1,51,77479
1,52,77435
1,53,77540
1,54,77367
1,55,77484
1,56,77590
1,57,77518
1,58,77507
1,59,77600
1,60,77559
1,61,77558
1,62,77470
1,63,77558
1,64,77440
1,65,77489
1,66,77487
1,67,77481
1,68,77473
1,69,77455
1,70,77504
1,71,77442
1,72,77519
1,73,77481
1,74,77429
1,75,77634
1,76,77613
1,77,77489
1,78,77439
1,79,77526
1,80,77338
1,81,77421
1,82,77447
1,83,77487
1,84,77476
1,85,77388
1,86,77326
1,87,77420
1,88,77428
1,89,77429
1,90,77465
1,91,77379
1,92,77591
1,93,77595
1,94,77429
1,95,77468
1,96,77435
1,97,77404
1,98,77489
1,99,77402
1,100,77419
1,101,77485
1,102,77499
1,103,77459
1,104,77534
1,105,77456
1,106,77404
1,107,77550
1,108,77444
1,109,77530
1,110,77470
1,111,77466
1,112,77390
1,113,77500
1,114,77473
1,115,77454
1,116,77374
1,117,77465
1,118,77531
1,119,77416
1,120,77314
1,121,77557
1,122,77543
1,123,77509
1,124,77483
1,125,77463
1,126,77451
1,127,77418
1,128,77504
1,129,77531
1,130,77404
1,131,77394
1,132,77510
1,133,77421
1,134,77424
1,135,77580
1,136,77499
1,137,77422
1,138,77441
1,139,77567
1,140,77490
1,141,77460
1,142,77342
1,143,77531
1,144,77480
1,145,77416
1,146,77376
1,147,77626
1,148,77442
1,149,77372
1,150,77478
1,151,77538
1,152,77496
1,153,77586
1,154,77573
1,155,77555
1,156,77519
1,157,77440
1,158,77475
1,159,77524
1,160,77430
1,161,77397
1,162,77491
1,163,77489
1,164,77451
1,165,77477
1,166,77459
1,167,77498
1,168,77472
1,169,77469
1,170,77579
1,171,77556
1,172,77403
1,173,77526
1,174,77480
1,175,77341
1,176,77377
1,177,77389
1,178,77341
1,179,77424
1,180,77425
1,181,77512
1,182,77479
1,183,77398
1,184,77416
1,185,77546
1,186,77572
1,187,77486
1,188,77345
1,189,77385
1,190,77503
1,191,77533
1,192,77404
1,193,77472
1,194,77382
1,195,77318
1,196,77496
1,197,77478
1,198,77380
1,199,77542
1,200,77472
1,201,77426
1,202,77617
1,203,77512
1,204,77397
1,205,77527
1,206,77508
1,207,77453
1,208,77511
1,209,77399
1,210,77562
1,211,77427
1,212,77504
1,213,77340
1,214,77665
1,215,77467
1,216,77470
1,217,77536
1,218,77454
1,219,77442
1,220,77416
1,221,77450
1,222,77448
1,223,77456
1,224,77413
1,225,77561
1,226,77464
1,227,77409
1,228,77455
1,229,77431
1,230,77429
1,231,77385
1,232,77506
1,233,77482
1,234,77394
1,235,77319
1,236,77401
1,237,77383
1,238,77541
1,239,77451
1,240,77460
1,241,77488
1,242,77510
1,243,77489
1,244,77445
1,245,77414
1,246,77554
1,247,77529
1,248,77439
1,249,77479
1,250,77478
1,251,77451
1,252,77442
1,253,77336
1,254,77457
1,255,77302
1,256,77344
1,257,77418
1,258,77525
1,259,77394
1,260,77534
1,261,77420
1,262,77488
1,263,77422
1,264,77408
1,265,77483
1,266,77470
1,267,77443
1,268,77381
1,269,77525
1,270,77482
1,271,77420
1,272,77379
1,273,77405
1,274,77423
1,275,77463
1,276,77524
1,277,77440
1,278,77556
1,279,77496
1,280,77454
1,281,77490
1,282,77567
1,283,77435
1,284,77418
1,285,77482
1,286,77532
1,287,77517
1,288,77378
1,289,77558
1,290,77396
1,291,77474
1,292,77518
1,293,77598
1,294,77456
1,295,77551
1,296,77349
1,297,77332
1,298,77501
1,299,77564
1,300,77541
1,301,77557
1,302,77596
1,303,77626
1,304,77506
1,305,77557
1,306,77468
1,307,77541
1,308,77357
1,309,77478
1,310,77340
1,311,77423
1,312,77420
1,313,77444
1,314,77626
1,315,77354
1,316,77495
1,317,77460
1,318,77533
1,319,77477
1,320,77529
1,321,77416
1,322,77579
1,323,77510
1,324,77507
1,325,77385
1,326,77402
1,327,77410
1,328,77382
1,329,77510
1,330,77517
1,331,77479
1,332,77568
1,333,77467
1,334,77353
1,335,77537
1,336,77573
1,337,77413
1,338,77472
1,339,77603
1,340,77398
1,341,77465
1,342,77442
1,343,77489
1,344,77465
1,345,77366
1,346,77463
1,347,77394
1,348,77507
1,349,77389
1,350,77488
1,351,77485
1,352,77485
1,353,77533
1,354,77440
1,355,77598
1,356,77542
1,357,77414
1,358,77487
1,359,77436
1,360,77355
1,361,77492
1,362,77528
1,363,77508
1,364,77468
1,365,77399
1,366,77366
1,367,77427
1,368,77363
1,369,77362
1,370,77465
1,371,77501
1,372,77412
1,373,77398
1,374,77429
1,375,77468
1,376,77413
1,377,77505
1,378,77437
1,379,77429
1,380,77510
1,381,77414
1,382,77434
1,383,77467
1,384,77533
1,385,77482
1,386,77393
1,387,77421
1,388,77455
1,389,77415
1,390,77397
1,391,77405
1,392,77482
1,393,77590
1,394,77495
1,395,77495
1,396,77491
1,397,77521
1,398,77273
1,399,77503
1,400,77328
1,401,77505
1,402,77498
1,403,77475
1,404,77473
1,405,77394
1,406,77498
1,407,77491
1,408,77557
1,409,77467
1,410,77433
1,411,77467
1,412,77546
1,413,77551
1,414,77518
1,415,77391
1,416,77421
1,417,77601
1,418,77452
1,419,77502
1,420,77502
1,421,77480
1,422,77430
1,423,77361
1,424,77510
1,425,77521
1,426,77445
1,427,77479
1,428,77542
1,429,77433
1,430,77437
1,431,77528
1,432,77527
1,433,77442
1,434,77491
1,435,77392
1,436,77444
1,437,77440
1,438,77306
1,439,77272
1,440,77482
1,441,77542
1,442,77501
1,443,77449
1,444,77466
1,445,77511
1,446,77513
1,447,77335
1,448,77509
1,449,77377
1,450,77374
1,451,77388
1,452,77233
1,453,77288
1,454,77517
1,455,77363
1,456,77485
1,457,77477
1,458,77422
1,459,77331
1,460,77529
1,461,77426
1,462,77372
1,463,77511
1,464,77467
1,465,77545
1,466,77542
1,467,77387
1,468,77404
1,469,77395
1,470,77512
1,471,77556
1,472,77423
1,473,77315
1,474,77523
1,475,77522
1,476,77486
1,477,77473
1,478,77559
1,479,77473
1,480,77436
1,481,77465
1,482,77451
1,483,77458
1,484,77392
1,485,77534
1,486,77507
1,487,77422
1,488,77343
1,489,77377
1,490,77453
1,491,77579
1,492,77573
1,493,77386
1,494,77468
1,495,77466
1,496,77409
1,497,77544
1,498,77530
1,499,77450
1,500,77471
1,501,77505
1,502,77455
1,503,77595
1,504,77546
1,505,77567
1,506,77424
1,507,77317
1,508,77392
1,509,77469
1,510,77350
1,511,77444
1,512,77472
1,513,77464
1,514,77471
1,515,77480
1,516,77397
1,517,77514
1,518,77617
1,519,77541
1,520,77570
1,521,77511
1,522,77439
1,523,77502
1,524,77541
1,525,77450
1,526,77577
1,527,77411
1,528,77504
1,529,77596
1,530,77422
1,531,77407
1,532,77572
1,533,77494
1,534,77552
1,535,77546
1,536,77525
1,537,77492
1,538,77444
1,539,77408
1,540,77478
1,541,77548
1,542,77405
1,543,77548
1,544,77534
1,545,77492
1,546,77386
1,547,77499
1,548,77455
1,549,77488
1,550,77450
1,551,77323
1,552,77533
1,553,77365
1,554,77574
1,555,77540
1,556,77434
1,557,77431
1,558,77601
1,559,77383
1,560,77498
1,561,77357
1,562,77371
1,563,77467
1,564,77387
1,565,77502
1,566,77416
1,567,77525
1,568,77503
1,569,77406
1,570,77457
1,571,77486
1,572,77572
1,573,77560
1,574,77408
1,575,77601
1,576,77390
1,577,77385
1,578,77492
1,579,77431
1,580,77477
1,581,77387
1,582,77448
1,583,77510
1,584,77569
1,585,77413
1,586,77575
1,587,77420
1,588,77394
1,589,77436
1,590,77449
1,591,77427
1,592,77521
1,593,77522
1,594,77424
1,595,77462
1,596,77565
1,597,77321
1,598,77448
1,599,77610
1,600,77552
1,601,77445
1,602,77413
1,603,77379
1,604,77620
1,605,77542
1,606,77495
1,607,77512
1,608,77499
1,609,77405
1,610,77478
1,611,77622
1,612,77585
1,613,77391
1,614,77485
1,615,77441
1,616,77403
1,617,77367
1,618,77439
1,619,77504
1,620,77522
1,621,77519
1,622,77543
1,623,77469
1,624,77561
1,625,77548
1,626,77393
1,627,77484
1,628,77633
1,629,77419
1,630,77600
1,631,77481
1,632,77367
1,633,77512
1,634,77432
1,635,77382
1,636,77552
1,637,77503
1,638,77497
1,639,77579
1,640,77441
1,641,77490
1,642,77499
1,643,77436
1,644,77536
1,645,77393
1,646,77468
1,647,77463
1,648,77447
1,649,77473
1,650,77399
1,651,77470
1,652,77507
1,653,77532
1,654,77491
1,655,77471
1,656,77467
1,657,77509
1,658,77311
1,659,77496
1,660,77352
1,661,77473
1,662,77522
1,663,77251
1,664,77445
1,665,77429
1,666,77513
1,667,77470
1,668,77500
1,669,77579
1,670,77570
1,671,77562
1,672,77327
1,673,77340
1,674,77501
1,675,77497
1,676,77531
1,677,77610
1,678,77374
1,679,77445
1,680,77474
1,681,77404
1,682,77500
1,683,77495
1,684,77488
1,685,77481
1,686,77484
1,687,77312
1,688,77544
1,689,77466
1,690,77352
1,691,77581
1,692,77539
1,693,77489
1,694,77546
1,695,77384
1,696,77427
1,697,77432
1,698,77402
1,699,77540
1,700,77383
1,701,77401
1,702,77479
1,703,77460
1,704,77532
1,705,77414
1,706,77556
1,707,77480
1,708,77573
1,709,77433
1,710,77297
1,711,77423
1,712,77507
1,713,77435
1,714,77459
1,715,77382
1,716,77527
1,717,77597
1,718,77497
1,719,77549
1,720,77611
1,721,77350
1,722,77530
1,723,77449
1,724,77494
1,725,77398
1,726,77398
1,727,77464
1,728,77454
1,729,77406
1,730,77594
1,731,77612
1,732,77625
1,733,77449
1,734,77518
1,735,77584
1,736,77538
1,737,77468
1,738,77467
1,739,77498
1,740,77560
1,741,77547
1,742,77527
1,743,77478
1,744,77343
1,745,77448
1,746,77485
1,747,77470
1,748,77385
1,749,77587
1,750,77454
1,751,77533
1,752,77608
1,753,77371
1,754,77523
1,755,77440
1,756,77458
1,757,77469
1,758,77521
1,759,77371
1,760,77530
1,761,77566
1,762,77408
1,763,77509
1,764,77425
1,765,77463
1,766,77591
1,767,77474
1,768,77431
1,769,77445
1,770,77405
1,771,77380
1,772,77487
1,773,77586
1,774,77571
1,775,77485
1,776,77395
1,777,77535
1,778,77502
1,779,77387
1,780,77473
1,781,77494
1,782,77540
1,783,77395
1,784,77395
1,785,77564
1,786,77594
1,787,77546
1,788,77542
1,789,77508
1,790,77452
1,791,77365
1,792,77476
1,793,77464
1,794,77507
1,795,77501
1,796,77436
1,797,77486
1,798,77555
1,799,77471
1,800,77400
1,801,77501
1,802,77566
1,803,77528
1,804,77515
1,805,77432
1,806,77431
1,807,77425
1,808,77527
1,809,77463
1,810,77355
1,811,77409
1,812,77491
1,813,77526
1,814,77340
1,815,77520
1,816,77421
1,817,77548
1,818,77522
1,819,77517
1,820,77483
1,821,77551
1,822,77442
1,823,77460
1,824,77512
1,825,77355
1,826,77559
1,827,77520
1,828,77385
1,829,77518
1,830,77451
1,831,77370
1,832,77541
1,833,77509
1,834,77459
1,835,77475
1,836,77473
1,837,77434
1,838,77531
1,839,77525
1,840,77404
1,841,77395
1,842,77375
1,843,77538
1,844,77383
1,845,77315
1,846,77469
1,847,77477
1,848,77489
1,849,77496
1,850,77437
1,851,77505
1,852,77480
1,853,77545
1,854,77488
1,855,77548
1,856,77548
1,857,77500
1,858,77472
1,859,77434
1,860,77478
1,861,77451
1,862,77458
1,863,77487
1,864,77413
1,865,77564
1,866,77429
1,867,77465
1,868,77468
1,869,77491
1,870,77500
1,871,77498
1,872,77458
1,873,77510
1,874,77396
1,875,77489
1,876,77629
1,877,77540
1,878,77557
1,879,77495
1,880,77410
1,881,77512
1,882,77473
1,883,77438
1,884,77462
1,885,77532
1,886,77478
1,887,77571
1,888,77430
1,889,77448
1,890,77539
1,891,77514
1,892,77532
1,893,77622
1,894,77597
1,895,77471
1,896,77400
1,897,77417
1,898,77462
1,899,77462
1,900,77419
1,901,77442
1,902,77418
1,903,77459
1,904,77523
1,905,77389
1,906,77566
1,907,77500
1,908,77611
1,909,77473
1,910,77561
1,911,77514
1,912,77457
1,913,77620
1,914,77538
1,915,77459
1,916,77545
1,917,77508
1,918,77430
1,919,77465
1,920,77450
1,921,77445
1,922,77397
1,923,77491
1,924,77495
1,925,77551
1,926,77588
1,927,77448
1,928,77602
1,929,77470
1,930,77475
1,931,77527
1,932,77410
1,933,77624
1,934,77600
1,935,77431
1,936,77577
1,937,77566
1,938,77453
1,939,77596
1,940,77456
1,941,77558
1,942,77568
1,943,77514
1,944,77533
1,945,77611
1,946,77477
1,947,77353
1,948,77614
1,949,77585
1,950,77412
1,951,77451
1,952,77551
1,953,77426
1,954,77595
1,955,77501
1,956,77372
1,957,77525
1,958,77534
1,959,77580
1,960,77402
1,961,77390
1,962,77566
1,963,77575
1,964,77451
1,965,77413
1,966,77360
1,967,77400
1,968,77553
1,969,77470
1,970,77468
1,971,77515
1,972,77510
1,973,77415
1,974,77519
1,975,77533
1,976,77460
1,977,77536
1,978,77452
1,979,77499
1,980,77585
1,981,77315
1,982,77426
1,983,77552
1,984,77380
1,985,77413
1,986,77461
1,987,77562
1,988,77472
1,989,77527
1,990,77577
1,991,77507
1,992,77539
1,993,77575
1,994,77530
1,995,77558
1,996,77582
1,997,77474
1,998,77486
1,999,77437
1,1000,77496
1,1001,77446
1,1002,77434
1,1003,77547
1,1004,77433
1,1005,77607
1,1006,77531
1,1007,77385
1,1008,77558
1,1009,77353
1,1010,77545
1,1011,77583
1,1012,77569
1,1013,77453
1,1014,77550
1,1015,77610
1,1016,77380
1,1017,77517
1,1018,77486
1,1019,77577
1,1020,77470
1,1021,77512
1,1022,77476
1,1023,77541
1,1024,77445
1,1025,77526
1,1026,77612
1,1027,77443
1,1028,77549
1,1029,77455
1,1030,77485
1,1031,77504
1,1032,77499
1,1033,77497
1,1034,77424
1,1035,77544
1,1036,77445
1,1037,77500
1,1038,77411
1,1039,77434
1,1040,77409
1,1041,77578
1,1042,77548
1,1043,77555
1,1044,77550
1,1045,77482
1,1046,77643
1,1047,77525
1,1048,77590
1,1049,77499
1,1050,77718
1,1051,77577
1,1052,77531
1,1053,77638
1,1054,77555
1,1055,77632
1,1056,77497
1,1057,77562
1,1058,77590
1,1059,77486
1,1060,77459
1,1061,77617
1,1062,77461
1,1063,77523
1,1064,77550
1,1065,77543
1,1066,77490
1,1067,77552
1,1068,77463
1,1069,77497
1,1070,77582
1,1071,77569
1,1072,77708
1,1073,77544
1,1074,77515
1,1075,77543
1,1076,77650
1,1077,77618
1,1078,77438
1,1079,77689
1,1080,77459
1,1081,77534
1,1082,77487
1,1083,77481
1,1084,77571
1,1085,77507
1,1086,77577
1,1087,77582
1,1088,77548
1,1089,77512
1,1090,77529
1,1091,77421
1,1092,77452
1,1093,77602
1,1094,77459
1,1095,77592
1,1096,77599
1,1097,77555
1,1098,77643
1,1099,77590
1,1100,77453
1,1101,77459
1,1102,77723
1,1103,77523
1,1104,77598
1,1105,77429
1,1106,77460
1,1107,77576
1,1108,77450
1,1109,77439
1,1110,77531
1,1111,77519
1,1112,77625
1,1113,77653
1,1114,77339
1,1115,77642
1,1116,77484
1,1117,77552
1,1118,77440
1,1119,77560
1,1120,77535
1,1121,77657
1,1122,77537
1,1123,77549
1,1124,77542
1,1125,77555
1,1126,77583
1,1127,77598
1,1128,77555
1,1129,77606
1,1130,77699
1,1131,77509
1,1132,77409
1,1133,77455
1,1134,77484
1,1135,77669
1,1136,77592
1,1137,77607
1,1138,77500
1,1139,77642
1,1140,77486
1,1141,77531
1,1142,77661
1,1143,77409
1,1144,77555
1,1145,77568
1,1146,77557
1,1147,77551
1,1148,77651
1,1149,77602
1,1150,77626
1,1151,77588
1,1152,77509
1,1153,77579
1,1154,77569
1,1155,77653
1,1156,77619
1,1157,77474
1,1158,77577
1,1159,77490
1,1160,77618
1,1161,77517
1,1162,77560
1,1163,77515
1,1164,77588
1,1165,77655
1,1166,77741
1,1167,77654
1,1168,77684
1,1169,77462
1,1170,77448
1,1171,77651
1,1172,77536
1,1173,77602
1,1174,77624
1,1175,77538
1,1176,77571
1,1177,77606
1,1178,77509
1,1179,77543
1,1180,77493
1,1181,77574
1,1182,77595
1,1183,77484
1,1184,77507
1,1185,77466
1,1186,77546
1,1187,77470
1,1188,77624
1,1189,77570
1,1190,77575
1,1191,77590
1,1192,77431
1,1193,77466
1,1194,77584
1,1195,77577
1,1196,77638
1,1197,77597
1,1198,77434
1,1199,77683
1,1200,77599
1,1201,77537
1,1202,77560
1,1203,77539
1,1204,77362
1,1205,77640
1,1206,77514
1,1207,77579
1,1208,77554
1,1209,77517
1,1210,77550
1,1211,77646
1,1212,77592
1,1213,77649
1,1214,77666
1,1215,77626
1,1216,77587
1,1217,77587
1,1218,77556
1,1219,77591
1,1220,77539
1,1221,77640
1,1222,77498
1,1223,77665
1,1224,77553
1,1225,77589
1,1226,77697
1,1227,77463
1,1228,77633
1,1229,77650
1,1230,77568
1,1231,77781
1,1232,77726
1,1233,77661
1,1234,77675
1,1235,77615
1,1236,77607
1,1237,77611
1,1238,77603
1,1239,77553
1,1240,77627
1,1241,77623
1,1242,77634
1,1243,77658
1,1244,77604
1,1245,77628
1,1246,77804
1,1247,77640
1,1248,77737
1,1249,77834
1,1250,77647
1,1251,77625
1,1252,77744
1,1253,77709
1,1254,77639
1,1255,77711
1,1256,77645
1,1257,77807
1,1258,77690
1,1259,77666
1,1260,77746
1,1261,77705
1,1262,77682
1,1263,77848
1,1264,77639
1,1265,77593
1,1266,77661
1,1267,77766
1,1268,77656
1,1269,77646
1,1270,77793
1,1271,77760
1,1272,77669
1,1273,77578
1,1274,77814
1,1275,77575
1,1276,77642
1,1277,77640
1,1278,77735
1,1279,77675
1,1280,77844
1,1281,77700
1,1282,77560
1,1283,77756
1,1284,77627
1,1285,77604
1,1286,77550
1,1287,77649
1,1288,77654
1,1289,77702
1,1290,77591
1,1291,77631
1,1292,77587
1,1293,77651
1,1294,77633
1,1295,77705
1,1296,77609
1,1297,77591
1,1298,77817
1,1299,77690
1,1300,77703
1,1301,77708
1,1302,77626
1,1303,77621
1,1304,77749
1,1305,77573
1,1306,77392
1,1307,77633
1,1308,77572
1,1309,77593
1,1310,77568
1,1311,77480
1,1312,77528
1,1313,77617
1,1314,77531
1,1315,77505
1,1316,77566
1,1317,77526
1,1318,77579
1,1319,77586
1,1320,77511
1,1321,77439
1,1322,77523
1,1323,77526
1,1324,77472
1,1325,77508
1,1326,77522
1,1327,77470
1,1328,77450
1,1329,77417
1,1330,77305
1,1331,77283
1,1332,77307
1,1333,77228
1,1334,77136
1,1335,77144
1,1336,77121
1,1337,77055
1,1338,77016
1,1339,75794
1,1340,116860
