1,1,77512
1,2,77581
1,3,77542
1,4,77473
1,5,77647
1,6,77492
1,7,77609
1,8,77472
1,9,77454
1,10,77509
1,11,77477
1,12,77395
1,13,77547
1,14,77486
1,15,77528
1,16,77552
1,17,77415
1,18,77544
1,19,77512
1,20,77341
1,21,77398
1,22,77648
1,23,77467
1,24,77591
1,25,77447
1,26,77631
1,27,77658
1,28,77339
1,29,77531
1,30,77347
1,31,77458
1,32,77469
1,33,77459
1,34,77585
1,35,77492
1,36,77466
1,37,77449
1,38,77585
1,39,77560
1,40,77457
1,41,77492
1,42,77468
1,43,77477
1,44,77457
1,45,77443
1,46,77499
1,47,77431
1,48,77542
1,49,77453
1,50,77500
1,51,77589
1,52,77459
1,53,77566
1,54,77584
1,55,77410
1,56,77516
1,57,77670
1,58,77669
1,59,77551
1,60,77597
1,61,77604
1,62,77554
1,63,77487
1,64,77475
1,65,77549
1,66,77422
1,67,77605
1,68,77435
1,69,77592
1,70,77535
1,71,77550
1,72,77510
1,73,77460
1,74,77437
1,75,77655
1,76,77502
1,77,77560
1,78,77439
1,79,77662
1,80,77459
1,81,77509
1,82,77442
1,83,77470
1,84,77483
1,85,77474
1,86,77383
1,87,77484
1,88,77493
1,89,77557
1,90,77519
1,91,77486
1,92,77467
1,93,77459
1,94,77395
1,95,77513
1,96,77558
1,97,77459
1,98,77468
1,99,77567
1,100,77561
1,101,77384
1,102,77465
1,103,77487
1,104,77592
1,105,77375
1,106,77513
1,107,77442
1,108,77456
1,109,77462
1,110,77416
1,111,77414
1,112,77558
1,113,77421
1,114,77489
1,115,77520
1,116,77417
1,117,77387
1,118,77458
1,119,77357
1,120,77299
1,121,77421
1,122,77488
1,123,77533
1,124,77499
1,125,77372
1,126,77399
1,127,77399
1,128,77427
1,129,77440
1,130,77481
1,131,77453
1,132,77337
1,133,77393
1,134,77491
1,135,77464
1,136,77427
1,137,77497
1,138,77530
1,139,77508
1,140,77408
1,141,77465
1,142,77427
1,143,77422
1,144,77432
1,145,77539
1,146,77310
1,147,77534
1,148,77342
1,149,77453
1,150,77513
1,151,77573
1,152,77399
1,153,77533
1,154,77465
1,155,77387
1,156,77432
1,157,77325
1,158,77403
1,159,77305
1,160,77366
1,161,77418
1,162,77371
1,163,77396
1,164,77487
1,165,77417
1,166,77365
1,167,77433
1,168,77426
1,169,77337
1,170,77418
1,171,77345
1,172,77528
1,173,77513
1,174,77554
1,175,77494
1,176,77416
1,177,77484
1,178,77472
1,179,77571
1,180,77524
1,181,77595
1,182,77452
1,183,77482
1,184,77475
1,185,77484
1,186,77446
1,187,77409
1,188,77486
1,189,77579
1,190,77436
1,191,77456
1,192,77426
1,193,77418
1,194,77559
1,195,77523
1,196,77421
1,197,77522
1,198,77471
1,199,77471
1,200,77451
1,201,77516
1,202,77508
1,203,77510
1,204,77530
1,205,77438
1,206,77410
1,207,77659
1,208,77546
1,209,77503
1,210,77479
1,211,77485
1,212,77518
1,213,77562
1,214,77553
1,215,77670
1,216,77499
1,217,77582
1,218,77459
1,219,77517
1,220,77527
1,221,77521
1,222,77628
1,223,77603
1,224,77743
1,225,77626
1,226,77687
1,227,77577
1,228,77690
1,229,77684
1,230,77592
1,231,77540
1,232,77698
1,233,77512
1,234,77496
1,235,77680
1,236,77504
1,237,77428
1,238,77662
1,239,77577
1,240,77577
1,241,77571
1,242,77564
1,243,77497
1,244,77773
1,245,77648
1,246,77544
1,247,77450
1,248,77589
1,249,77685
1,250,77682
1,251,77714
1,252,77470
1,253,77506
1,254,77564
1,255,77768
1,256,77570
1,257,77700
1,258,77638
1,259,77571
1,260,77670
1,261,77755
1,262,77612
1,263,77601
1,264,77611
1,265,77625
1,266,77464
1,267,77755
1,268,77583
1,269,77738
1,270,77687
1,271,77503
1,272,77628
1,273,77602
1,274,77645
1,275,77543
1,276,77661
1,277,77673
1,278,77685
1,279,77701
1,280,77620
1,281,77600
1,282,77588
1,283,77569
1,284,77647
1,285,77675
1,286,77584
1,287,77471
1,288,77703
1,289,77589
1,290,77689
1,291,77588
1,292,77697
1,293,77690
1,294,77555
1,295,77579
1,296,77607
1,297,77560
1,298,77741
1,299,77644
1,300,77590
1,301,77670
1,302,77655
1,303,77717
1,304,77650
1,305,77663
1,306,77739
1,307,77663
1,308,77506
1,309,77808
1,310,77644
1,311,77587
1,312,77542
1,313,77739
1,314,77713
1,315,77612
1,316,77767
1,317,77478
1,318,77656
1,319,77595
1,320,77593
1,321,77614
1,322,77651
1,323,77745
1,324,77590
1,325,77712
1,326,77678
1,327,77690
1,328,77577
1,329,77644
1,330,77706
1,331,77645
1,332,77619
1,333,77551
1,334,77536
1,335,77578
1,336,77484
1,337,77470
1,338,77572
1,339,77657
1,340,77735
1,341,77721
1,342,77529
1,343,77629
1,344,77668
1,345,77811
1,346,77752
1,347,77731
1,348,77605
1,349,77630
1,350,77459
1,351,77671
1,352,77589
1,353,77607
1,354,77677
1,355,77628
1,356,77723
1,357,77733
1,358,77657
1,359,77677
1,360,77603
1,361,77788
1,362,77603
1,363,77605
1,364,77655
1,365,77620
1,366,77499
1,367,77710
1,368,77659
1,369,77609
1,370,77538
1,371,77647
1,372,77706
1,373,77702
1,374,77650
1,375,77571
1,376,77605
1,377,77641
1,378,77655
1,379,77711
1,380,77791
1,381,77842
1,382,77587
1,383,77729
1,384,77581
1,385,77694
1,386,77647
1,387,77639
1,388,77715
1,389,77629
1,390,77613
1,391,77589
1,392,77641
1,393,77626
1,394,77607
1,395,77598
1,396,77694
1,397,77640
1,398,77587
1,399,77698
1,400,77689
1,401,77691
1,402,77701
1,403,77624
1,404,77534
1,405,77790
1,406,77682
1,407,77714
1,408,77615
1,409,77561
1,410,77652
1,411,77590
1,412,77696
1,413,77588
1,414,77662
1,415,77658
1,416,77666
1,417,77684
1,418,77697
1,419,77637
1,420,77755
1,421,77685
1,422,77614
1,423,77660
1,424,77742
1,425,77584
1,426,77472
1,427,77471
1,428,77684
1,429,77750
1,430,77625
1,431,77630
1,432,77713
1,433,77604
1,434,77560
1,435,77758
1,436,77811
1,437,77741
1,438,77729
1,439,77752
1,440,77683
1,441,77667
1,442,77622
1,443,77638
1,444,77581
1,445,77544
1,446,77824
1,447,77724
1,448,77575
1,449,77615
1,450,77566
1,451,77854
1,452,77757
1,453,77735
1,454,77737
1,455,77643
1,456,77657
1,457,77704
1,458,77575
1,459,77643
1,460,77594
1,461,77714
1,462,77633
1,463,77624
1,464,77653
1,465,77706
1,466,77779
1,467,77717
1,468,77697
1,469,77610
1,470,77662
1,471,77760
1,472,77618
1,473,77601
1,474,77789
1,475,77595
1,476,77636
1,477,77561
1,478,77752
1,479,77724
1,480,77675
1,481,77839
1,482,77709
1,483,77588
1,484,77690
1,485,77720
1,486,77710
1,487,77641
1,488,77830
1,489,77573
1,490,77634
1,491,77578
1,492,77577
1,493,77537
1,494,77643
1,495,77691
1,496,77664
1,497,77690
1,498,77588
1,499,77738
1,500,77588
1,501,77457
1,502,77619
1,503,77711
1,504,77549
1,505,77826
1,506,77624
1,507,77806
1,508,77715
1,509,77746
1,510,77664
1,511,77838
1,512,77789
1,513,77688
1,514,77634
1,515,77668
1,516,77611
1,517,77632
1,518,77706
1,519,77746
1,520,77707
1,521,77671
1,522,77762
1,523,77742
1,524,77749
1,525,77717
1,526,77849
1,527,77888
1,528,77740
1,529,77767
1,530,77730
1,531,77690
1,532,77770
1,533,77642
1,534,77840
1,535,77869
1,536,77620
1,537,77690
1,538,77676
1,539,77796
1,540,77639
1,541,77623
1,542,77729
1,543,77647
1,544,77736
1,545,77599
1,546,77648
1,547,77691
1,548,77713
1,549,77643
1,550,77703
1,551,77827
1,552,77759
1,553,77667
1,554,77736
1,555,77750
1,556,77785
1,557,77686
1,558,77710
1,559,77728
1,560,77844
1,561,77720
1,562,77734
1,563,77689
1,564,77585
1,565,77654
1,566,77715
1,567,77971
1,568,77858
1,569,77694
1,570,77594
1,571,77664
1,572,77749
1,573,77825
1,574,77744
1,575,77624
1,576,77782
1,577,77685
1,578,77840
1,579,77717
1,580,77694
1,581,77824
1,582,77671
1,583,77620
1,584,77713
1,585,77864
1,586,77763
1,587,77850
1,588,77710
1,589,77741
1,590,77762
1,591,77653
1,592,77825
1,593,77723
1,594,77782
1,595,77829
1,596,77756
1,597,77714
1,598,77863
1,599,77641
1,600,77741
1,601,77571
1,602,77613
1,603,77751
1,604,77778
1,605,77638
1,606,77707
1,607,77692
1,608,77853
1,609,77694
1,610,77683
1,611,77795
1,612,77656
1,613,77731
1,614,77787
1,615,77731
1,616,77714
1,617,77768
1,618,77817
1,619,77817
1,620,77760
1,621,77780
1,622,77701
1,623,77741
1,624,77705
1,625,77756
1,626,77832
1,627,77699
1,628,77807
1,629,77687
1,630,77780
1,631,77826
1,632,77693
1,633,77737
1,634,77825
1,635,77736
1,636,77873
1,637,77668
1,638,77672
1,639,77690
1,640,77757
1,641,77689
1,642,77771
1,643,77694
1,644,77733
1,645,77734
1,646,77738
1,647,77814
1,648,77769
1,649,77770
1,650,77681
1,651,77616
1,652,77755
1,653,77844
1,654,77700
1,655,77651
1,656,77874
1,657,77923
1,658,77758
1,659,77710
1,660,77678
1,661,77778
1,662,77928
1,663,77699
1,664,77698
1,665,77725
1,666,77882
1,667,77779
1,668,77810
1,669,77733
1,670,77867
1,671,77769
1,672,77736
1,673,77798
1,674,77641
1,675,77826
1,676,77795
1,677,77788
1,678,77764
1,679,77867
1,680,77734
1,681,78057
1,682,77836
1,683,77660
1,684,77797
1,685,77960
1,686,77702
1,687,77729
1,688,77685
1,689,77708
1,690,77714
1,691,77752
1,692,77851
1,693,77841
1,694,77811
1,695,77724
1,696,77751
1,697,77856
1,698,77715
1,699,77668
1,700,77635
1,701,77693
1,702,77665
1,703,77763
1,704,77647
1,705,77791
1,706,77764
1,707,77762
1,708,77713
1,709,77787
1,710,77655
1,711,77705
1,712,77577
1,713,77808
1,714,77770
1,715,77789
1,716,77634
1,717,77875
1,718,77746
1,719,77563
1,720,77694
1,721,77794
1,722,77740
1,723,77732
1,724,77769
1,725,77863
1,726,77718
1,727,77854
1,728,77796
1,729,77750
1,730,77775
1,731,77875
1,732,77766
1,733,77856
1,734,77679
1,735,77912
1,736,77707
1,737,77741
1,738,77889
1,739,77789
1,740,77821
1,741,77776
1,742,77748
1,743,77757
1,744,77799
1,745,77828
1,746,77936
1,747,77699
1,748,77859
1,749,77750
1,750,77696
1,751,77768
1,752,77771
1,753,77704
1,754,77869
1,755,77847
1,756,77740
1,757,77810
1,758,77755
1,759,77784
1,760,77698
1,761,77783
1,762,77826
1,763,77563
1,764,77861
1,765,77762
1,766,77796
1,767,77822
1,768,77724
1,769,77692
1,770,77693
1,771,77739
1,772,77739
1,773,77917
1,774,77769
1,775,77774
1,776,77795
1,777,77776
1,778,77805
1,779,77733
1,780,77791
1,781,77689
1,782,77763
1,783,77769
1,784,77884
1,785,77778
1,786,77852
1,787,77617
1,788,77708
1,789,77817
1,790,77728
1,791,77739
1,792,77806
1,793,77832
1,794,77870
1,795,77758
1,796,77774
1,797,77808
1,798,77852
1,799,77848
1,800,77821
1,801,77758
1,802,77788
1,803,77756
1,804,77740
1,805,77708
1,806,77799
1,807,77835
1,808,77817
1,809,77712
1,810,77780
1,811,77835
1,812,77855
1,813,77840
1,814,77826
1,815,77819
1,816,77855
1,817,77842
1,818,77765
1,819,77834
1,820,77812
1,821,77866
1,822,77914
1,823,77956
1,824,77909
1,825,77920
1,826,77875
1,827,77894
1,828,77871
1,829,77820
1,830,77918
1,831,77891
1,832,77920
1,833,77905
1,834,77977
1,835,77939
1,836,77955
1,837,78073
1,838,77780
1,839,77916
1,840,77964
1,841,77944
1,842,77877
1,843,77894
1,844,77831
1,845,77720
1,846,77756
1,847,77862
1,848,77861
1,849,77854
1,850,77717
1,851,77987
1,852,77890
1,853,77925
1,854,77884
1,855,77849
1,856,77726
1,857,77778
1,858,77823
1,859,77795
1,860,77718
1,861,77833
1,862,77878
1,863,77704
1,864,77706
1,865,77974
1,866,77780
1,867,77832
1,868,77787
1,869,77732
1,870,77753
1,871,77770
1,872,77833
1,873,77854
1,874,77805
1,875,77971
1,876,77833
1,877,77909
1,878,77808
1,879,77844
1,880,77654
1,881,77805
1,882,77677
1,883,77883
1,884,77817
1,885,77786
1,886,77902
1,887,77678
1,888,77728
1,889,77740
1,890,77750
1,891,77643
1,892,77880
1,893,77796
1,894,77716
1,895,77735
1,896,77861
1,897,77670
1,898,77858
1,899,77841
1,900,77958
1,901,77765
1,902,77791
1,903,77791
1,904,77813
1,905,77774
1,906,77866
1,907,77654
1,908,77853
1,909,77870
1,910,77793
1,911,77829
1,912,77821
1,913,77746
1,914,77937
1,915,77820
1,916,77841
1,917,77860
1,918,77902
1,919,77914
1,920,77855
1,921,77789
1,922,77855
1,923,77923
1,924,77773
1,925,77763
1,926,77813
1,927,77754
1,928,77821
1,929,77744
1,930,77814
1,931,77695
1,932,77731
1,933,77787
1,934,77799
1,935,77915
1,936,77795
1,937,77883
1,938,77791
1,939,77952
1,940,77833
1,941,77847
1,942,77755
1,943,77667
1,944,77753
1,945,77857
1,946,77735
1,947,77794
1,948,77838
1,949,77902
1,950,77731
1,951,77723
1,952,77726
1,953,77802
1,954,77812
1,955,77920
1,956,77663
1,957,77776
1,958,77704
1,959,77757
1,960,77876
1,961,77730
1,962,77678
1,963,77809
1,964,77857
1,965,77779
1,966,77765
1,967,77908
1,968,77754
1,969,77839
1,970,77792
1,971,77801
1,972,77704
1,973,77947
1,974,77815
1,975,77724
1,976,77864
1,977,77841
1,978,77903
1,979,77902
1,980,77810
1,981,77858
1,982,77855
1,983,78010
1,984,77784
1,985,77711
1,986,77944
1,987,77820
1,988,77809
1,989,77777
1,990,77870
1,991,77798
1,992,77720
1,993,77803
1,994,77868
1,995,77730
1,996,77946
1,997,77826
1,998,77922
1,999,77857
1,1000,77888
1,1001,78033
1,1002,77882
1,1003,77799
1,1004,77820
1,1005,77811
1,1006,77807
1,1007,77931
1,1008,77911
1,1009,77870
1,1010,77927
1,1011,78032
1,1012,77887
1,1013,77971
1,1014,77807
1,1015,77974
1,1016,77985
1,1017,77959
1,1018,77821
1,1019,77882
1,1020,77789
1,1021,77822
1,1022,77802
1,1023,77786
1,1024,77809
1,1025,77833
1,1026,77851
1,1027,77851
1,1028,77921
1,1029,77966
1,1030,77943
1,1031,77964
1,1032,77753
1,1033,77976
1,1034,77780
1,1035,77735
1,1036,77876
1,1037,77835
1,1038,77891
1,1039,77950
1,1040,77820
1,1041,77835
1,1042,77811
1,1043,77907
1,1044,77888
1,1045,77960
1,1046,77886
1,1047,77840
1,1048,77720
1,1049,77698
1,1050,77852
1,1051,77864
1,1052,78047
1,1053,77787
1,1054,77865
1,1055,77880
1,1056,77616
1,1057,77878
1,1058,77929
1,1059,77770
1,1060,77822
1,1061,77803
1,1062,78046
1,1063,77882
1,1064,77874
1,1065,77890
1,1066,77781
1,1067,77712
1,1068,77763
1,1069,77865
1,1070,77759
1,1071,77858
1,1072,77936
1,1073,77909
1,1074,77824
1,1075,77947
1,1076,78043
1,1077,77991
1,1078,78022
1,1079,77925
1,1080,77841
1,1081,77780
1,1082,77877
1,1083,77931
1,1084,78032
1,1085,77860
1,1086,77932
1,1087,77977
1,1088,77931
1,1089,77885
1,1090,77794
1,1091,77718
1,1092,77867
1,1093,77883
1,1094,77989
1,1095,78016
1,1096,77992
1,1097,77825
1,1098,77892
1,1099,77958
1,1100,77919
1,1101,77926
1,1102,77999
1,1103,77887
1,1104,77941
1,1105,77890
1,1106,77885
1,1107,77910
1,1108,77883
1,1109,77996
1,1110,77933
1,1111,77974
1,1112,77972
1,1113,77771
1,1114,77860
1,1115,77828
1,1116,77736
1,1117,77885
1,1118,77921
1,1119,77910
1,1120,77925
1,1121,77692
1,1122,77731
1,1123,77854
1,1124,77908
1,1125,77818
1,1126,77900
1,1127,77863
1,1128,77900
1,1129,77884
1,1130,77944
1,1131,78038
1,1132,77955
1,1133,77996
1,1134,77906
1,1135,77976
1,1136,77985
1,1137,78020
1,1138,78005
1,1139,77993
1,1140,77826
1,1141,77931
1,1142,77971
1,1143,77953
1,1144,77745
1,1145,77897
1,1146,78136
1,1147,77957
1,1148,77914
1,1149,77928
1,1150,77795
1,1151,77870
1,1152,77996
1,1153,77856
1,1154,77936
1,1155,77987
1,1156,77921
1,1157,77733
1,1158,77981
1,1159,77890
1,1160,77861
1,1161,77849
1,1162,77885
1,1163,77807
1,1164,77802
1,1165,77949
1,1166,77922
1,1167,77883
1,1168,77866
1,1169,77822
1,1170,77952
1,1171,77835
1,1172,77796
1,1173,77907
1,1174,77852
1,1175,77745
1,1176,77947
1,1177,77954
1,1178,77898
1,1179,77919
1,1180,77887
1,1181,77863
1,1182,77932
1,1183,77906
1,1184,77849
1,1185,77873
1,1186,77848
1,1187,78006
1,1188,77936
1,1189,77764
1,1190,77763
1,1191,77774
1,1192,77878
1,1193,77839
1,1194,77734
1,1195,77935
1,1196,77979
1,1197,77880
1,1198,77887
1,1199,77842
1,1200,77860
1,1201,77990
1,1202,77984
1,1203,77950
1,1204,77784
1,1205,77943
1,1206,77944
1,1207,77899
1,1208,77950
1,1209,77875
1,1210,77964
1,1211,77879
1,1212,77947
1,1213,77951
1,1214,77787
1,1215,77706
1,1216,77782
1,1217,77880
1,1218,77866
1,1219,77846
1,1220,77904
1,1221,77970
1,1222,77918
1,1223,77893
1,1224,77844
1,1225,77953
1,1226,77861
1,1227,77924
1,1228,77953
1,1229,77937
1,1230,77878
1,1231,77872
1,1232,78014
1,1233,78004
1,1234,77908
1,1235,77898
1,1236,77787
1,1237,78019
1,1238,77932
1,1239,77996
1,1240,78001
1,1241,77912
1,1242,78036
1,1243,78038
1,1244,78124
1,1245,77898
1,1246,78030
1,1247,78003
1,1248,78085
1,1249,78075
1,1250,78002
1,1251,78131
1,1252,78146
1,1253,78061
1,1254,78063
1,1255,77930
1,1256,78040
1,1257,77990
1,1258,78085
1,1259,78151
1,1260,78108
1,1261,78093
1,1262,78041
1,1263,78048
1,1264,77981
1,1265,78063
1,1266,78048
1,1267,77940
1,1268,77983
1,1269,78134
1,1270,77931
1,1271,77976
1,1272,78020
1,1273,77898
1,1274,78068
1,1275,78098
1,1276,77823
1,1277,78013
1,1278,77999
1,1279,78039
1,1280,78011
1,1281,78161
1,1282,78050
1,1283,78188
1,1284,77941
1,1285,77903
1,1286,78141
1,1287,77958
1,1288,78014
1,1289,78039
1,1290,77971
1,1291,78016
1,1292,77988
1,1293,77839
1,1294,77917
1,1295,77902
1,1296,77924
1,1297,77840
1,1298,78045
1,1299,77902
1,1300,77920
1,1301,77942
1,1302,77899
1,1303,77761
1,1304,78066
1,1305,77966
1,1306,77793
1,1307,77888
1,1308,77868
1,1309,77870
1,1310,77997
1,1311,77878
1,1312,77851
1,1313,77867
1,1314,77858
1,1315,77828
1,1316,77896
1,1317,77740
1,1318,77839
1,1319,77870
1,1320,77688
1,1321,77782
1,1322,77766
1,1323,77881
1,1324,77650
1,1325,77668
1,1326,77662
1,1327,77562
1,1328,77735
1,1329,77882
1,1330,77485
1,1331,77599
1,1332,77408
1,1333,77467
1,1334,77500
1,1335,77489
1,1336,77322
1,1337,77414
1,1338,77223
1,1339,75911
1,1340,117314
