1,1,78075
1,2,77981
1,3,78117
1,4,78096
1,5,78123
1,6,78043
1,7,77914
1,8,77953
1,9,78104
1,10,78111
1,11,78079
1,12,78128
1,13,78147
1,14,77996
1,15,78089
1,16,77977
1,17,78135
1,18,78060
1,19,78285
1,20,78209
1,21,78081
1,22,78109
1,23,78158
1,24,78015
1,25,78058
1,26,78078
1,27,78145
1,28,78101
1,29,78282
1,30,78102
1,31,78282
1,32,78216
1,33,78222
1,34,77981
1,35,77986
1,36,78102
1,37,78025
1,38,77991
1,39,78148
1,40,78160
1,41,78159
1,42,78141
1,43,78079
1,44,78154
1,45,78215
1,46,78349
1,47,78258
1,48,78201
1,49,78187
1,50,78212
1,51,78205
1,52,78293
1,53,78265
1,54,78227
1,55,78251
1,56,78163
1,57,78356
1,58,78206
1,59,78172
1,60,78322
1,61,78102
1,62,78145
1,63,78330
1,64,78273
1,65,78084
1,66,78117
1,67,78275
1,68,78105
1,69,78198
1,70,78350
1,71,78100
1,72,78045
1,73,78024
1,74,78014
1,75,78041
1,76,77965
1,77,78085
1,78,78040
1,79,78022
1,80,77993
1,81,77959
1,82,77973
1,83,77891
1,84,77916
1,85,77866
1,86,77715
1,87,77717
1,88,77853
1,89,77658
1,90,77773
1,91,77606
1,92,77521
1,93,77458
1,94,77495
1,95,77616
1,96,77475
1,97,77545
1,98,77490
1,99,77539
1,100,77616
1,101,77549
1,102,77459
1,103,77381
1,104,77400
1,105,77325
1,106,77385
1,107,77650
1,108,77378
1,109,77258
1,110,77401
1,111,77282
1,112,77409
1,113,77449
1,114,77331
1,115,77409
1,116,77390
1,117,77435
1,118,77395
1,119,77406
1,120,77319
1,121,77379
1,122,77320
1,123,77410
1,124,77271
1,125,77296
1,126,77410
1,127,77357
1,128,77291
1,129,77465
1,130,77372
1,131,77366
1,132,77345
1,133,77330
1,134,77292
1,135,77346
1,136,77496
1,137,77431
1,138,77332
1,139,77296
1,140,77309
1,141,77383
1,142,77413
1,143,77390
1,144,77359
1,145,77310
1,146,77360
1,147,77390
1,148,77330
1,149,77320
1,150,77338
1,151,77473
1,152,77480
1,153,77485
1,154,77375
1,155,77423
1,156,77439
1,157,77329
1,158,77361
1,159,77359
1,160,77345
1,161,77370
1,162,77266
1,163,77269
1,164,77404
1,165,77358
1,166,77407
1,167,77386
1,168,77447
1,169,77401
1,170,77423
1,171,77419
1,172,77354
1,173,77306
1,174,77332
1,175,77572
1,176,77347
1,177,77421
1,178,77333
1,179,77469
1,180,77364
1,181,77430
1,182,77483
1,183,77455
1,184,77465
1,185,77452
1,186,77503
1,187,77369
1,188,77506
1,189,77528
1,190,77476
1,191,77493
1,192,77406
1,193,77370
1,194,77486
1,195,77434
1,196,77502
1,197,77526
1,198,77451
1,199,77528
1,200,77558
1,201,77463
1,202,77692
1,203,77709
1,204,77668
1,205,77710
1,206,77589
1,207,77793
1,208,77726
1,209,77816
1,210,77849
1,211,77966
1,212,77858
1,213,77963
1,214,77971
1,215,78111
1,216,78196
1,217,78216
1,218,78137
1,219,78372
1,220,78312
1,221,78076
1,222,78232
1,223,78325
1,224,78334
1,225,78312
1,226,78335
1,227,78255
1,228,78491
1,229,78649
1,230,78534
1,231,78510
1,232,78441
1,233,78608
1,234,78457
1,235,78485
1,236,78687
1,237,78623
1,238,78611
1,239,78654
1,240,78630
1,241,78594
1,242,78687
1,243,78852
1,244,78678
1,245,78838
1,246,78776
1,247,78865
1,248,78813
1,249,78724
1,250,78827
1,251,78792
1,252,78881
1,253,79040
1,254,78994
1,255,78914
1,256,78914
1,257,79070
1,258,78993
1,259,78954
1,260,79040
1,261,79078
1,262,78972
1,263,79034
1,264,78958
1,265,79043
1,266,78913
1,267,79039
1,268,79139
1,269,79095
1,270,79166
1,271,79203
1,272,79141
1,273,79153
1,274,79226
1,275,79237
1,276,79315
1,277,79259
1,278,79191
1,279,79291
1,280,79355
1,281,79263
1,282,79329
1,283,79201
1,284,79163
1,285,79299
1,286,79191
1,287,79319
1,288,79262
1,289,79240
1,290,79234
1,291,79301
1,292,79267
1,293,79504
1,294,79262
1,295,79253
1,296,79443
1,297,79409
1,298,79435
1,299,79271
1,300,79524
1,301,79399
1,302,79434
1,303,79556
1,304,79433
1,305,79400
1,306,79427
1,307,79354
1,308,79415
1,309,79463
1,310,79335
1,311,79508
1,312,79380
1,313,79527
1,314,79503
1,315,79439
1,316,79426
1,317,79461
1,318,79372
1,319,79442
1,320,79327
1,321,79356
1,322,79409
1,323,79586
1,324,79541
1,325,79543
1,326,79475
1,327,79566
1,328,79603
1,329,79504
1,330,79460
1,331,79464
1,332,79563
1,333,79554
1,334,79648
1,335,79408
1,336,79482
1,337,79403
1,338,79416
1,339,79602
1,340,79606
1,341,79430
1,342,79590
1,343,79651
1,344,79604
1,345,79574
1,346,79369
1,347,79603
1,348,79630
1,349,79693
1,350,79570
1,351,79626
1,352,79599
1,353,79626
1,354,79548
1,355,79690
1,356,79474
1,357,79594
1,358,79497
1,359,79484
1,360,79552
1,361,79713
1,362,79567
1,363,79620
1,364,79696
1,365,79635
1,366,79693
1,367,79643
1,368,79699
1,369,79633
1,370,79623
1,371,79760
1,372,79665
1,373,79604
1,374,79581
1,375,79741
1,376,79626
1,377,79474
1,378,79680
1,379,79843
1,380,79682
1,381,79804
1,382,79736
1,383,79730
1,384,79775
1,385,79596
1,386,79739
1,387,79758
1,388,79942
1,389,79712
1,390,79702
1,391,79859
1,392,79716
1,393,79698
1,394,79731
1,395,79785
1,396,79751
1,397,79833
1,398,79860
1,399,79763
1,400,79828
1,401,79667
1,402,79862
1,403,79898
1,404,79831
1,405,79793
1,406,79711
1,407,79931
1,408,79978
1,409,79741
1,410,79794
1,411,79761
1,412,80011
1,413,79991
1,414,79888
1,415,79780
1,416,79872
1,417,79947
1,418,79868
1,419,79943
1,420,79881
1,421,80009
1,422,79952
1,423,79978
1,424,79904
1,425,79887
1,426,79869
1,427,79910
1,428,79950
1,429,79792
1,430,80059
1,431,79948
1,432,79944
1,433,80076
1,434,79939
1,435,79991
1,436,80103
1,437,80071
1,438,80021
1,439,79767
1,440,79944
1,441,79916
1,442,80143
1,443,79917
1,444,80096
1,445,80032
1,446,80012
1,447,80117
1,448,80079
1,449,80199
1,450,79895
1,451,79980
1,452,79983
1,453,80166
1,454,80234
1,455,80120
1,456,80143
1,457,80038
1,458,80149
1,459,80144
1,460,80046
1,461,80120
1,462,79993
1,463,80197
1,464,80250
1,465,80021
1,466,80217
1,467,80040
1,468,80086
1,469,80093
1,470,80290
1,471,80199
1,472,79965
1,473,80154
1,474,80168
1,475,80097
1,476,80242
1,477,80189
1,478,80051
1,479,80225
1,480,80160
1,481,80161
1,482,80223
1,483,80060
1,484,80128
1,485,80117
1,486,80196
1,487,80283
1,488,80291
1,489,80255
1,490,80446
1,491,80270
1,492,80048
1,493,80340
1,494,80232
1,495,80193
1,496,80176
1,497,80270
1,498,80192
1,499,80273
1,500,80358
1,501,80296
1,502,80305
1,503,80338
1,504,80339
1,505,80279
1,506,80246
1,507,80378
1,508,80287
1,509,80258
1,510,80504
1,511,80383
1,512,80283
1,513,80203
1,514,80450
1,515,80464
1,516,80296
1,517,80478
1,518,80291
1,519,80238
1,520,80500
1,521,80320
1,522,80429
1,523,80295
1,524,80302
1,525,80287
1,526,80404
1,527,80430
1,528,80389
1,529,80497
1,530,80498
1,531,80527
1,532,80446
1,533,80350
1,534,80361
1,535,80398
1,536,80367
1,537,80419
1,538,80598
1,539,80588
1,540,80573
1,541,80540
1,542,80386
1,543,80552
1,544,80547
1,545,80464
1,546,80637
1,547,80548
1,548,80639
1,549,80659
1,550,80498
1,551,80588
1,552,80545
1,553,80638
1,554,80535
1,555,80440
1,556,80541
1,557,80596
1,558,80464
1,559,80477
1,560,80554
1,561,80645
1,562,80567
1,563,80457
1,564,80637
1,565,80625
1,566,80545
1,567,80510
1,568,80442
1,569,80448
1,570,80505
1,571,80655
1,572,80690
1,573,80519
1,574,80615
1,575,80700
1,576,80620
1,577,80618
1,578,80547
1,579,80705
1,580,80531
1,581,80733
1,582,80588
1,583,80691
1,584,80706
1,585,80653
1,586,80771
1,587,80605
1,588,80710
1,589,80813
1,590,80636
1,591,80719
1,592,80730
1,593,80668
1,594,80611
1,595,80681
1,596,80576
1,597,80585
1,598,80745
1,599,80612
1,600,80714
1,601,80684
1,602,80774
1,603,80722
1,604,80601
1,605,80742
1,606,80792
1,607,80649
1,608,80782
1,609,80795
1,610,80801
1,611,80895
1,612,80823
1,613,80854
1,614,80762
1,615,80696
1,616,80834
1,617,80741
1,618,80725
1,619,81103
1,620,80871
1,621,80820
1,622,80863
1,623,80770
1,624,80856
1,625,80919
1,626,80826
1,627,80923
1,628,80692
1,629,80912
1,630,80815
1,631,80895
1,632,81080
1,633,81016
1,634,80813
1,635,80899
1,636,81055
1,637,80913
1,638,80978
1,639,80841
1,640,80953
1,641,80877
1,642,80914
1,643,80861
1,644,80917
1,645,81006
1,646,80892
1,647,80779
1,648,80797
1,649,81055
1,650,81078
1,651,81068
1,652,80985
1,653,80879
1,654,80987
1,655,80919
1,656,81002
1,657,81024
1,658,80837
1,659,81018
1,660,80873
1,661,80928
1,662,80845
1,663,81077
1,664,80969
1,665,81013
1,666,80987
1,667,80995
1,668,81098
1,669,81077
1,670,81063
1,671,80858
1,672,81063
1,673,81238
1,674,81046
1,675,80927
1,676,81039
1,677,80956
1,678,80902
1,679,81110
1,680,81017
1,681,81111
1,682,81113
1,683,80897
1,684,81095
1,685,81330
1,686,81139
1,687,81089
1,688,81009
1,689,81020
1,690,81258
1,691,81186
1,692,80997
1,693,81195
1,694,80876
1,695,81094
1,696,81041
1,697,81053
1,698,81158
1,699,81280
1,700,81140
1,701,81054
1,702,81123
1,703,81265
1,704,81173
1,705,81082
1,706,81137
1,707,81236
1,708,81100
1,709,81078
1,710,81319
1,711,81358
1,712,81000
1,713,81323
1,714,81262
1,715,81216
1,716,81245
1,717,81342
1,718,81161
1,719,81166
1,720,81279
1,721,81177
1,722,81232
1,723,81348
1,724,81334
1,725,81178
1,726,81371
1,727,81253
1,728,81314
1,729,81370
1,730,81285
1,731,81274
1,732,81467
1,733,81258
1,734,81342
1,735,81306
1,736,81187
1,737,81285
1,738,81228
1,739,81291
1,740,81339
1,741,81378
1,742,81210
1,743,81349
1,744,81277
1,745,81209
1,746,81201
1,747,81372
1,748,81189
1,749,81305
1,750,81377
1,751,81401
1,752,81442
1,753,81441
1,754,81250
1,755,81348
1,756,81267
1,757,81431
1,758,81406
1,759,81343
1,760,81269
1,761,81428
1,762,81389
1,763,81462
1,764,81248
1,765,81375
1,766,81443
1,767,81233
1,768,81566
1,769,81353
1,770,81365
1,771,81411
1,772,81415
1,773,81312
1,774,81475
1,775,81315
1,776,81322
1,777,81570
1,778,81466
1,779,81293
1,780,81590
1,781,81409
1,782,81359
1,783,81445
1,784,81474
1,785,81455
1,786,81493
1,787,81398
1,788,81318
1,789,81378
1,790,81355
1,791,81567
1,792,81659
1,793,81533
1,794,81562
1,795,81366
1,796,81434
1,797,81392
1,798,81393
1,799,81544
1,800,81515
1,801,81401
1,802,81392
1,803,81488
1,804,81392
1,805,81494
1,806,81438
1,807,81627
1,808,81564
1,809,81444
1,810,81511
1,811,81422
1,812,81519
1,813,81689
1,814,81539
1,815,81421
1,816,81596
1,817,81371
1,818,81666
1,819,81714
1,820,81514
1,821,81640
1,822,81458
1,823,81348
1,824,81605
1,825,81664
1,826,81452
1,827,81547
1,828,81320
1,829,81371
1,830,81628
1,831,81564
1,832,81489
1,833,81568
1,834,81537
1,835,81510
1,836,81449
1,837,81632
1,838,81461
1,839,81473
1,840,81706
1,841,81645
1,842,81622
1,843,81528
1,844,81586
1,845,81551
1,846,81594
1,847,81556
1,848,81516
1,849,81785
1,850,81532
1,851,81573
1,852,81697
1,853,81814
1,854,81778
1,855,81639
1,856,81650
1,857,81673
1,858,81701
1,859,81705
1,860,81626
1,861,81718
1,862,81573
1,863,81711
1,864,81739
1,865,81613
1,866,81701
1,867,81683
1,868,81644
1,869,81714
1,870,81726
1,871,81547
1,872,81672
1,873,81769
1,874,81640
1,875,81778
1,876,81734
1,877,81532
1,878,81858
1,879,81769
1,880,81679
1,881,81580
1,882,81643
1,883,81641
1,884,81851
1,885,81565
1,886,81689
1,887,81758
1,888,81717
1,889,81608
1,890,81743
1,891,81748
1,892,81774
1,893,81795
1,894,81779
1,895,81544
1,896,81647
1,897,81740
1,898,81744
1,899,81802
1,900,81740
1,901,81510
1,902,81514
1,903,81745
1,904,81755
1,905,81690
1,906,81638
1,907,81622
1,908,81724
1,909,81663
1,910,81707
1,911,81799
1,912,81829
1,913,81656
1,914,81756
1,915,81618
1,916,81585
1,917,81785
1,918,81790
1,919,81821
1,920,81728
1,921,81601
1,922,81614
1,923,81792
1,924,81742
1,925,81685
1,926,81789
1,927,81681
1,928,81729
1,929,81776
1,930,81774
1,931,81870
1,932,81723
1,933,81725
1,934,81725
1,935,81837
1,936,81883
1,937,81734
1,938,81764
1,939,81655
1,940,81807
1,941,81779
1,942,81888
1,943,81642
1,944,81797
1,945,81825
1,946,81748
1,947,81932
1,948,81958
1,949,81813
1,950,81762
1,951,81654
1,952,81821
1,953,81651
1,954,81604
1,955,81759
1,956,81825
1,957,81778
1,958,81813
1,959,81756
1,960,81784
1,961,81784
1,962,81810
1,963,81606
1,964,81764
1,965,81760
1,966,81669
1,967,81901
1,968,82030
1,969,81820
1,970,81719
1,971,81831
1,972,81950
1,973,81699
1,974,81722
1,975,81729
1,976,81867
1,977,81858
1,978,81676
1,979,81762
1,980,81836
1,981,81887
1,982,81728
1,983,81893
1,984,81916
1,985,81816
1,986,81994
1,987,81993
1,988,81879
1,989,81750
1,990,81723
1,991,81665
1,992,81726
1,993,81722
1,994,81858
1,995,81873
1,996,81872
1,997,81690
1,998,81761
1,999,81817
1,1000,81779
1,1001,81898
1,1002,81750
1,1003,81777
1,1004,81767
1,1005,81772
1,1006,81811
1,1007,81708
1,1008,81624
1,1009,81769
1,1010,81829
1,1011,81775
1,1012,81695
1,1013,81828
1,1014,81937
1,1015,81886
1,1016,81803
1,1017,81715
1,1018,81728
1,1019,81906
1,1020,81818
1,1021,81793
1,1022,81804
1,1023,81789
1,1024,81908
1,1025,81716
1,1026,81673
1,1027,81847
1,1028,81922
1,1029,81888
1,1030,81882
1,1031,81798
1,1032,81805
1,1033,81807
1,1034,81910
1,1035,81845
1,1036,81876
1,1037,81822
1,1038,81781
1,1039,81818
1,1040,81770
1,1041,81652
1,1042,81728
1,1043,81610
1,1044,81615
1,1045,81893
1,1046,81768
1,1047,81802
1,1048,81901
1,1049,81819
1,1050,81910
1,1051,81728
1,1052,81822
1,1053,81811
1,1054,81709
1,1055,81710
1,1056,81772
1,1057,81793
1,1058,81742
1,1059,81791
1,1060,81668
1,1061,81676
1,1062,81760
1,1063,81737
1,1064,81824
1,1065,81732
1,1066,81595
1,1067,81759
1,1068,81675
1,1069,81633
1,1070,81915
1,1071,81810
1,1072,81866
1,1073,81525
1,1074,81591
1,1075,81713
1,1076,81709
1,1077,81632
1,1078,81751
1,1079,81809
1,1080,81789
1,1081,81630
1,1082,81687
1,1083,81659
1,1084,81741
1,1085,81592
1,1086,81796
1,1087,81869
1,1088,81792
1,1089,81849
1,1090,81802
1,1091,81529
1,1092,81756
1,1093,81754
1,1094,81646
1,1095,81720
1,1096,81666
1,1097,81756
1,1098,81732
1,1099,81696
1,1100,81755
1,1101,81718
1,1102,81840
1,1103,81825
1,1104,81678
1,1105,81667
1,1106,81672
1,1107,81874
1,1108,81807
1,1109,81771
1,1110,81690
1,1111,81764
1,1112,81812
1,1113,81837
1,1114,81723
1,1115,81653
1,1116,81695
1,1117,81667
1,1118,81738
1,1119,81679
1,1120,81671
1,1121,81709
1,1122,81728
1,1123,81748
1,1124,81670
1,1125,81782
1,1126,81718
1,1127,81631
1,1128,81584
1,1129,81671
1,1130,81688
1,1131,81761
1,1132,81687
1,1133,81933
1,1134,81722
1,1135,81612
1,1136,81838
1,1137,81696
1,1138,81646
1,1139,81664
1,1140,81552
1,1141,81730
1,1142,81623
1,1143,81807
1,1144,81815
1,1145,81823
1,1146,81671
1,1147,81829
1,1148,81619
1,1149,81741
1,1150,81633
1,1151,81811
1,1152,81674
1,1153,81404
1,1154,81747
1,1155,81540
1,1156,81722
1,1157,81674
1,1158,81608
1,1159,81744
1,1160,81644
1,1161,81592
1,1162,81541
1,1163,81678
1,1164,81738
1,1165,81492
1,1166,81605
1,1167,81669
1,1168,81616
1,1169,81482
1,1170,81741
1,1171,81742
1,1172,81578
1,1173,81675
1,1174,81682
1,1175,81417
1,1176,81551
1,1177,81778
1,1178,81497
1,1179,81585
1,1180,81551
1,1181,81420
1,1182,81440
1,1183,81326
1,1184,81530
1,1185,81491
1,1186,81556
1,1187,81552
1,1188,81564
1,1189,81417
1,1190,81403
1,1191,81454
1,1192,81465
1,1193,81697
1,1194,81578
1,1195,81590
1,1196,81455
1,1197,81599
1,1198,81366
1,1199,81482
1,1200,81446
1,1201,81371
1,1202,81425
1,1203,81347
1,1204,81375
1,1205,81383
1,1206,81426
1,1207,81486
1,1208,81527
1,1209,81471
1,1210,81436
1,1211,81449
1,1212,81522
1,1213,81603
1,1214,81445
1,1215,81445
1,1216,81434
1,1217,81443
1,1218,81549
1,1219,81517
1,1220,81446
1,1221,81513
1,1222,81569
1,1223,81404
1,1224,81467
1,1225,81537
1,1226,81538
1,1227,81392
1,1228,81377
1,1229,81408
1,1230,81377
1,1231,81509
1,1232,81477
1,1233,81433
1,1234,81522
1,1235,81307
1,1236,81395
1,1237,81432
1,1238,81388
1,1239,81420
1,1240,81329
1,1241,81301
1,1242,81291
1,1243,81232
1,1244,81371
1,1245,81363
1,1246,81410
1,1247,81355
1,1248,81545
1,1249,81352
1,1250,81283
1,1251,81428
1,1252,81612
1,1253,81397
1,1254,81332
1,1255,81365
1,1256,81259
1,1257,81264
1,1258,81358
1,1259,81296
1,1260,81184
1,1261,81170
1,1262,81315
1,1263,81222
1,1264,81288
1,1265,81462
1,1266,81196
1,1267,81201
1,1268,81160
1,1269,81082
1,1270,81149
1,1271,81174
1,1272,81127
1,1273,81206
1,1274,81132
1,1275,80979
1,1276,80998
1,1277,81122
1,1278,80975
1,1279,80834
1,1280,81084
1,1281,80845
1,1282,80699
1,1283,80872
1,1284,80939
1,1285,80712
1,1286,81078
1,1287,80996
1,1288,80793
1,1289,81006
1,1290,80829
1,1291,80647
1,1292,80751
1,1293,80688
1,1294,80583
1,1295,80747
1,1296,80675
1,1297,80404
1,1298,80532
1,1299,80317
1,1300,80369
1,1301,80529
1,1302,80289
1,1303,80297
1,1304,80469
1,1305,80482
1,1306,80323
1,1307,80366
1,1308,80397
1,1309,80338
1,1310,80091
1,1311,80111
1,1312,79964
1,1313,80048
1,1314,80122
1,1315,79951
1,1316,80182
1,1317,79919
1,1318,79961
1,1319,79849
1,1320,79996
1,1321,79725
1,1322,79892
1,1323,79955
1,1324,79721
1,1325,79778
1,1326,79742
1,1327,79590
1,1328,79576
1,1329,79574
1,1330,79488
1,1331,79404
1,1332,79454
1,1333,79362
1,1334,79379
1,1335,79228
1,1336,79117
1,1337,79142
1,1338,79080
1,1339,77793
1,1340,118728
