1,1,77223
1,2,77231
1,3,77341
1,4,77369
1,5,77304
1,6,77372
1,7,77362
1,8,77301
1,9,77277
1,10,77319
1,11,77355
1,12,77343
1,13,77343
1,14,77205
1,15,77391
1,16,77316
1,17,77390
1,18,77446
1,19,77344
1,20,77325
1,21,77230
1,22,77263
1,23,77396
1,24,77328
1,25,77366
1,26,77428
1,27,77354
1,28,77306
1,29,77353
1,30,77294
1,31,77299
1,32,77437
1,33,77250
1,34,77321
1,35,77265
1,36,77339
1,37,77379
1,38,77201
1,39,77382
1,40,77381
1,41,77387
1,42,77376
1,43,77235
1,44,77289
1,45,77290
1,46,77449
1,47,77286
1,48,77375
1,49,77413
1,50,77300
1,51,77222
1,52,77388
1,53,77348
1,54,77453
1,55,77378
1,56,77281
1,57,77285
1,58,77261
1,59,77371
1,60,77453
1,61,77310
1,62,77422
1,63,77200
1,64,77339
1,65,77297
1,66,77334
1,67,77313
1,68,77337
1,69,77317
1,70,77383
1,71,77430
1,72,77383
1,73,77451
1,74,77308
1,75,77363
1,76,77323
1,77,77258
1,78,77406
1,79,77372
1,80,77444
1,81,77381
1,82,77359
1,83,77279
1,84,77232
1,85,77409
1,86,77178
1,87,77489
1,88,77331
1,89,77120
1,90,77338
1,91,77332
1,92,77274
1,93,77373
1,94,77376
1,95,77247
1,96,77213
1,97,77337
1,98,77280
1,99,77167
1,100,77203
1,101,77227
1,102,77279
1,103,77344
1,104,77295
1,105,77196
1,106,77406
1,107,77263
1,108,77372
1,109,77212
1,110,77280
1,111,77360
1,112,77365
1,113,77238
1,114,77298
1,115,77330
1,116,77346
1,117,77289
1,118,77231
1,119,77241
1,120,77224
1,121,77259
1,122,77342
1,123,77313
1,124,77369
1,125,77361
1,126,77305
1,127,77440
1,128,77402
1,129,77358
1,130,77409
1,131,77173
1,132,77326
1,133,77436
1,134,77251
1,135,77343
1,136,77278
1,137,77368
1,138,77372
1,139,77408
1,140,77360
1,141,77398
1,142,77275
1,143,77195
1,144,77417
1,145,77365
1,146,77254
1,147,77259
1,148,77321
1,149,77166
1,150,77393
1,151,77337
1,152,77265
1,153,77292
1,154,77255
1,155,77244
1,156,77273
1,157,77301
1,158,77374
1,159,77241
1,160,77276
1,161,77340
1,162,77383
1,163,77290
1,164,77380
1,165,77438
1,166,77323
1,167,77398
1,168,77242
1,169,77329
1,170,77410
1,171,77366
1,172,77283
1,173,77363
1,174,77323
1,175,77319
1,176,77226
1,177,77415
1,178,77274
1,179,77337
1,180,77333
1,181,77331
1,182,77448
1,183,77389
1,184,77366
1,185,77358
1,186,77383
1,187,77288
1,188,77379
1,189,77352
1,190,77303
1,191,77216
1,192,77381
1,193,77339
1,194,77328
1,195,77315
1,196,77349
1,197,77302
1,198,77327
1,199,77217
1,200,77401
1,201,77406
1,202,77305
1,203,77370
1,204,77263
1,205,77323
1,206,77292
1,207,77244
1,208,77364
1,209,77285
1,210,77314
1,211,77356
1,212,77300
1,213,77218
1,214,77260
1,215,77397
1,216,77322
1,217,77354
1,218,77410
1,219,77410
1,220,77220
1,221,77223
1,222,77239
1,223,77255
1,224,77307
1,225,77273
1,226,77378
1,227,77314
1,228,77233
1,229,77203
1,230,77176
1,231,77283
1,232,77328
1,233,77393
1,234,77292
1,235,77337
1,236,77340
1,237,77435
1,238,77224
1,239,77367
1,240,77481
1,241,77407
1,242,77219
1,243,77356
1,244,77383
1,245,77286
1,246,77339
1,247,77409
1,248,77323
1,249,77413
1,250,77252
1,251,77420
1,252,77312
1,253,77311
1,254,77312
1,255,77308
1,256,77335
1,257,77382
1,258,77335
1,259,77481
1,260,77213
1,261,77292
1,262,77335
1,263,77364
1,264,77323
1,265,77298
1,266,77295
1,267,77377
1,268,77388
1,269,77398
1,270,77338
1,271,77156
1,272,77266
1,273,77428
1,274,77372
1,275,77335
1,276,77285
1,277,77363
1,278,77314
1,279,77269
1,280,77398
1,281,77260
1,282,77366
1,283,77289
1,284,77328
1,285,77360
1,286,77453
1,287,77250
1,288,77340
1,289,77343
1,290,77435
1,291,77403
1,292,77253
1,293,77321
1,294,77251
1,295,77390
1,296,77393
1,297,77298
1,298,77312
1,299,77338
1,300,77321
1,301,77359
1,302,77376
1,303,77378
1,304,77415
1,305,77393
1,306,77355
1,307,77391
1,308,77325
1,309,77342
1,310,77425
1,311,77420
1,312,77244
1,313,77349
1,314,77492
1,315,77326
1,316,77335
1,317,77397
1,318,77263
1,319,77332
1,320,77393
1,321,77359
1,322,77313
1,323,77395
1,324,77416
1,325,77223
1,326,77193
1,327,77276
1,328,77245
1,329,77315
1,330,77207
1,331,77387
1,332,77226
1,333,77429
1,334,77427
1,335,77371
1,336,77368
1,337,77390
1,338,77291
1,339,77336
1,340,77249
1,341,77318
1,342,77414
1,343,77261
1,344,77255
1,345,77340
1,346,77361
1,347,77363
1,348,77300
1,349,77308
1,350,77332
1,351,77432
1,352,77330
1,353,77439
1,354,77346
1,355,77395
1,356,77414
1,357,77291
1,358,77354
1,359,77328
1,360,77370
1,361,77341
1,362,77275
1,363,77244
1,364,77270
1,365,77320
1,366,77470
1,367,77463
1,368,77426
1,369,77423
1,370,77261
1,371,77239
1,372,77307
1,373,77295
1,374,77251
1,375,77406
1,376,77389
1,377,77408
1,378,77313
1,379,77419
1,380,77410
1,381,77427
1,382,77290
1,383,77389
1,384,77444
1,385,77354
1,386,77465
1,387,77431
1,388,77239
1,389,77328
1,390,77327
1,391,77417
1,392,77329
1,393,77342
1,394,77451
1,395,77388
1,396,77349
1,397,77446
1,398,77283
1,399,77425
1,400,77467
1,401,77326
1,402,77374
1,403,77398
1,404,77174
1,405,77199
1,406,77290
1,407,77328
1,408,77452
1,409,77287
1,410,77402
1,411,77356
1,412,77420
1,413,77201
1,414,77274
1,415,77381
1,416,77340
1,417,77444
1,418,77433
1,419,77351
1,420,77357
1,421,77352
1,422,77499
1,423,77352
1,424,77303
1,425,77232
1,426,77372
1,427,77484
1,428,77315
1,429,77413
1,430,77411
1,431,77296
1,432,77334
1,433,77317
1,434,77284
1,435,77424
1,436,77489
1,437,77267
1,438,77305
1,439,77339
1,440,77318
1,441,77558
1,442,77403
1,443,77298
1,444,77289
1,445,77314
1,446,77369
1,447,77394
1,448,77360
1,449,77400
1,450,77368
1,451,77373
1,452,77319
1,453,77410
1,454,77379
1,455,77374
1,456,77295
1,457,77259
1,458,77270
1,459,77214
1,460,77340
1,461,77306
1,462,77408
1,463,77411
1,464,77264
1,465,77368
1,466,77281
1,467,77265
1,468,77354
1,469,77301
1,470,77299
1,471,77330
1,472,77338
1,473,77312
1,474,77337
1,475,77346
1,476,77410
1,477,77345
1,478,77358
1,479,77420
1,480,77365
1,481,77299
1,482,77275
1,483,77356
1,484,77293
1,485,77314
1,486,77332
1,487,77339
1,488,77320
1,489,77393
1,490,77281
1,491,77245
1,492,77305
1,493,77358
1,494,77388
1,495,77443
1,496,77446
1,497,77341
1,498,77251
1,499,77321
1,500,77260
1,501,77243
1,502,77310
1,503,77285
1,504,77355
1,505,77256
1,506,77396
1,507,77383
1,508,77243
1,509,77299
1,510,77366
1,511,77353
1,512,77351
1,513,77372
1,514,77407
1,515,77417
1,516,77301
1,517,77275
1,518,77418
1,519,77261
1,520,77356
1,521,77410
1,522,77389
1,523,77446
1,524,77390
1,525,77304
1,526,77412
1,527,77320
1,528,77334
1,529,77313
1,530,77410
1,531,77404
1,532,77397
1,533,77240
1,534,77409
1,535,77238
1,536,77179
1,537,77333
1,538,77354
1,539,77279
1,540,77206
1,541,77372
1,542,77446
1,543,77425
1,544,77356
1,545,77472
1,546,77297
1,547,77446
1,548,77461
1,549,77426
1,550,77346
1,551,77412
1,552,77242
1,553,77368
1,554,77328
1,555,77334
1,556,77221
1,557,77224
1,558,77345
1,559,77344
1,560,77347
1,561,77497
1,562,77421
1,563,77449
1,564,77290
1,565,77354
1,566,77336
1,567,77419
1,568,77485
1,569,77431
1,570,77331
1,571,77464
1,572,77323
1,573,77289
1,574,77312
1,575,77260
1,576,77335
1,577,77379
1,578,77424
1,579,77286
1,580,77259
1,581,77270
1,582,77478
1,583,77336
1,584,77329
1,585,77321
1,586,77327
1,587,77289
1,588,77396
1,589,77215
1,590,77344
1,591,77463
1,592,77366
1,593,77432
1,594,77363
1,595,77435
1,596,77322
1,597,77306
1,598,77508
1,599,77327
1,600,77417
1,601,77342
1,602,77230
1,603,77366
1,604,77284
1,605,77144
1,606,77309
1,607,77309
1,608,77337
1,609,77399
1,610,77345
1,611,77305
1,612,77332
1,613,77277
1,614,77263
1,615,77293
1,616,77328
1,617,77312
1,618,77328
1,619,77310
1,620,77468
1,621,77393
1,622,77391
1,623,77457
1,624,77355
1,625,77261
1,626,77351
1,627,77222
1,628,77247
1,629,77443
1,630,77400
1,631,77446
1,632,77419
1,633,77352
1,634,77379
1,635,77408
1,636,77382
1,637,77240
1,638,77319
1,639,77362
1,640,77285
1,641,77260
1,642,77426
1,643,77335
1,644,77421
1,645,77300
1,646,77249
1,647,77425
1,648,77355
1,649,77248
1,650,77401
1,651,77473
1,652,77362
1,653,77380
1,654,77284
1,655,77377
1,656,77307
1,657,77534
1,658,77468
1,659,77188
1,660,77397
1,661,77415
1,662,77487
1,663,77254
1,664,77280
1,665,77344
1,666,77405
1,667,77172
1,668,77324
1,669,77460
1,670,77421
1,671,77350
1,672,77434
1,673,77327
1,674,77320
1,675,77294
1,676,77318
1,677,77253
1,678,77236
1,679,77228
1,680,77446
1,681,77405
1,682,77292
1,683,77332
1,684,77424
1,685,77318
1,686,77465
1,687,77443
1,688,77289
1,689,77286
1,690,77440
1,691,77490
1,692,77386
1,693,77453
1,694,77380
1,695,77347
1,696,77367
1,697,77455
1,698,77275
1,699,77290
1,700,77193
1,701,77293
1,702,77383
1,703,77352
1,704,77272
1,705,77285
1,706,77262
1,707,77310
1,708,77380
1,709,77266
1,710,77400
1,711,77476
1,712,77411
1,713,77394
1,714,77411
1,715,77321
1,716,77315
1,717,77334
1,718,77309
1,719,77405
1,720,77401
1,721,77401
1,722,77346
1,723,77392
1,724,77404
1,725,77375
1,726,77280
1,727,77368
1,728,77383
1,729,77327
1,730,77326
1,731,77343
1,732,77295
1,733,77367
1,734,77359
1,735,77486
1,736,77439
1,737,77441
1,738,77374
1,739,77379
1,740,77335
1,741,77378
1,742,77235
1,743,77419
1,744,77376
1,745,77312
1,746,77398
1,747,77362
1,748,77392
1,749,77296
1,750,77195
1,751,77345
1,752,77339
1,753,77326
1,754,77432
1,755,77350
1,756,77232
1,757,77342
1,758,77509
1,759,77302
1,760,77378
1,761,77304
1,762,77470
1,763,77366
1,764,77288
1,765,77396
1,766,77365
1,767,77421
1,768,77325
1,769,77295
1,770,77290
1,771,77371
1,772,77437
1,773,77350
1,774,77545
1,775,77430
1,776,77450
1,777,77272
1,778,77344
1,779,77369
1,780,77417
1,781,77379
1,782,77434
1,783,77488
1,784,77433
1,785,77392
1,786,77463
1,787,77381
1,788,77466
1,789,77362
1,790,77276
1,791,77413
1,792,77364
1,793,77320
1,794,77295
1,795,77277
1,796,77432
1,797,77324
1,798,77336
1,799,77394
1,800,77374
1,801,77286
1,802,77468
1,803,77467
1,804,77418
1,805,77424
1,806,77401
1,807,77296
1,808,77327
1,809,77261
1,810,77277
1,811,77358
1,812,77414
1,813,77327
1,814,77489
1,815,77349
1,816,77370
1,817,77398
1,818,77398
1,819,77322
1,820,77273
1,821,77210
1,822,77233
1,823,77445
1,824,77447
1,825,77349
1,826,77340
1,827,77312
1,828,77329
1,829,77410
1,830,77402
1,831,77426
1,832,77446
1,833,77378
1,834,77481
1,835,77250
1,836,77374
1,837,77393
1,838,77355
1,839,77433
1,840,77350
1,841,77439
1,842,77413
1,843,77347
1,844,77353
1,845,77311
1,846,77284
1,847,77349
1,848,77313
1,849,77329
1,850,77434
1,851,77321
1,852,77293
1,853,77429
1,854,77362
1,855,77265
1,856,77412
1,857,77293
1,858,77365
1,859,77393
1,860,77399
1,861,77314
1,862,77428
1,863,77364
1,864,77248
1,865,77343
1,866,77418
1,867,77329
1,868,77424
1,869,77540
1,870,77488
1,871,77305
1,872,77389
1,873,77368
1,874,77273
1,875,77376
1,876,77380
1,877,77266
1,878,77301
1,879,77320
1,880,77340
1,881,77450
1,882,77379
1,883,77300
1,884,77385
1,885,77382
1,886,77392
1,887,77428
1,888,77331
1,889,77429
1,890,77435
1,891,77456
1,892,77369
1,893,77274
1,894,77376
1,895,77283
1,896,77337
1,897,77420
1,898,77445
1,899,77352
1,900,77330
1,901,77449
1,902,77503
1,903,77352
1,904,77406
1,905,77387
1,906,77342
1,907,77578
1,908,77404
1,909,77416
1,910,77397
1,911,77415
1,912,77423
1,913,77388
1,914,77342
1,915,77403
1,916,77329
1,917,77342
1,918,77434
1,919,77324
1,920,77483
1,921,77330
1,922,77404
1,923,77347
1,924,77299
1,925,77249
1,926,77291
1,927,77453
1,928,77441
1,929,77384
1,930,77357
1,931,77415
1,932,77434
1,933,77395
1,934,77405
1,935,77581
1,936,77391
1,937,77416
1,938,77381
1,939,77387
1,940,77385
1,941,77517
1,942,77333
1,943,77285
1,944,77415
1,945,77302
1,946,77351
1,947,77532
1,948,77343
1,949,77249
1,950,77452
1,951,77259
1,952,77349
1,953,77283
1,954,77349
1,955,77475
1,956,77333
1,957,77288
1,958,77461
1,959,77318
1,960,77353
1,961,77382
1,962,77404
1,963,77341
1,964,77322
1,965,77406
1,966,77387
1,967,77429
1,968,77290
1,969,77276
1,970,77433
1,971,77436
1,972,77336
1,973,77362
1,974,77330
1,975,77485
1,976,77265
1,977,77382
1,978,77354
1,979,77380
1,980,77330
1,981,77474
1,982,77392
1,983,77451
1,984,77347
1,985,77430
1,986,77511
1,987,77357
1,988,77398
1,989,77441
1,990,77471
1,991,77345
1,992,77401
1,993,77417
1,994,77403
1,995,77319
1,996,77451
1,997,77475
1,998,77383
1,999,77453
1,1000,77395
1,1001,77317
1,1002,77414
1,1003,77469
1,1004,77338
1,1005,77425
1,1006,77456
1,1007,77329
1,1008,77340
1,1009,77290
1,1010,77322
1,1011,77250
1,1012,77464
1,1013,77464
1,1014,77426
1,1015,77368
1,1016,77460
1,1017,77323
1,1018,77229
1,1019,77430
1,1020,77467
1,1021,77557
1,1022,77397
1,1023,77346
1,1024,77409
1,1025,77559
1,1026,77398
1,1027,77420
1,1028,77475
1,1029,77386
1,1030,77364
1,1031,77328
1,1032,77416
1,1033,77298
1,1034,77434
1,1035,77434
1,1036,77436
1,1037,77382
1,1038,77399
1,1039,77433
1,1040,77561
1,1041,77352
1,1042,77449
1,1043,77413
1,1044,77427
1,1045,77292
1,1046,77367
1,1047,77342
1,1048,77347
1,1049,77372
1,1050,77377
1,1051,77396
1,1052,77313
1,1053,77398
1,1054,77348
1,1055,77429
1,1056,77429
1,1057,77485
1,1058,77306
1,1059,77430
1,1060,77435
1,1061,77492
1,1062,77422
1,1063,77336
1,1064,77470
1,1065,77303
1,1066,77324
1,1067,77387
1,1068,77330
1,1069,77295
1,1070,77345
1,1071,77276
1,1072,77357
1,1073,77377
1,1074,77416
1,1075,77467
1,1076,77301
1,1077,77497
1,1078,77388
1,1079,77445
1,1080,77241
1,1081,77435
1,1082,77431
1,1083,77208
1,1084,77222
1,1085,77412
1,1086,77461
1,1087,77398
1,1088,77401
1,1089,77328
1,1090,77319
1,1091,77386
1,1092,77455
1,1093,77401
1,1094,77389
1,1095,77523
1,1096,77457
1,1097,77366
1,1098,77500
1,1099,77500
1,1100,77465
1,1101,77398
1,1102,77514
1,1103,77398
1,1104,77486
1,1105,77393
1,1106,77317
1,1107,77467
1,1108,77419
1,1109,77331
1,1110,77323
1,1111,77392
1,1112,77327
1,1113,77497
1,1114,77361
1,1115,77421
1,1116,77419
1,1117,77411
1,1118,77428
1,1119,77323
1,1120,77461
1,1121,77560
1,1122,77388
1,1123,77330
1,1124,77404
1,1125,77473
1,1126,77528
1,1127,77371
1,1128,77300
1,1129,77395
1,1130,77353
1,1131,77523
1,1132,77514
1,1133,77442
1,1134,77488
1,1135,77482
1,1136,77395
1,1137,77431
1,1138,77379
1,1139,77392
1,1140,77484
1,1141,77422
1,1142,77452
1,1143,77360
1,1144,77466
1,1145,77359
1,1146,77598
1,1147,77423
1,1148,77551
1,1149,77536
1,1150,77504
1,1151,77435
1,1152,77493
1,1153,77452
1,1154,77380
1,1155,77474
1,1156,77518
1,1157,77353
1,1158,77461
1,1159,77445
1,1160,77408
1,1161,77400
1,1162,77584
1,1163,77314
1,1164,77556
1,1165,77503
1,1166,77409
1,1167,77652
1,1168,77474
1,1169,77373
1,1170,77585
1,1171,77522
1,1172,77440
1,1173,77441
1,1174,77657
1,1175,77523
1,1176,77395
1,1177,77544
1,1178,77389
1,1179,77422
1,1180,77504
1,1181,77496
1,1182,77514
1,1183,77326
1,1184,77441
1,1185,77461
1,1186,77411
1,1187,77424
1,1188,77535
1,1189,77513
1,1190,77532
1,1191,77305
1,1192,77435
1,1193,77324
1,1194,77430
1,1195,77391
1,1196,77350
1,1197,77322
1,1198,77486
1,1199,77557
1,1200,77399
1,1201,77494
1,1202,77423
1,1203,77482
1,1204,77441
1,1205,77422
1,1206,77389
1,1207,77445
1,1208,77333
1,1209,77281
1,1210,77415
1,1211,77420
1,1212,77464
1,1213,77571
1,1214,77375
1,1215,77370
1,1216,77414
1,1217,77416
1,1218,77542
1,1219,77411
1,1220,77474
1,1221,77495
1,1222,77421
1,1223,77505
1,1224,77434
1,1225,77471
1,1226,77540
1,1227,77507
1,1228,77572
1,1229,77575
1,1230,77471
1,1231,77548
1,1232,77441
1,1233,77527
1,1234,77456
1,1235,77474
1,1236,77536
1,1237,77568
1,1238,77492
1,1239,77444
1,1240,77523
1,1241,77495
1,1242,77498
1,1243,77470
1,1244,77616
1,1245,77504
1,1246,77457
1,1247,77603
1,1248,77542
1,1249,77600
1,1250,77657
1,1251,77651
1,1252,77613
1,1253,77454
1,1254,77454
1,1255,77571
1,1256,77546
1,1257,77648
1,1258,77634
1,1259,77572
1,1260,77543
1,1261,77590
1,1262,77620
1,1263,77623
1,1264,77622
1,1265,77505
1,1266,77622
1,1267,77467
1,1268,77628
1,1269,77547
1,1270,77474
1,1271,77505
1,1272,77554
1,1273,77491
1,1274,77718
1,1275,77645
1,1276,77605
1,1277,77493
1,1278,77521
1,1279,77712
1,1280,77510
1,1281,77545
1,1282,77568
1,1283,77652
1,1284,77423
1,1285,77491
1,1286,77599
1,1287,77518
1,1288,77543
1,1289,77537
1,1290,77544
1,1291,77446
1,1292,77612
1,1293,77405
1,1294,77437
1,1295,77629
1,1296,77538
1,1297,77593
1,1298,77535
1,1299,77468
1,1300,77530
1,1301,77494
1,1302,77446
1,1303,77441
1,1304,77353
1,1305,77517
1,1306,77492
1,1307,77526
1,1308,77457
1,1309,77479
1,1310,77516
1,1311,77548
1,1312,77381
1,1313,77469
1,1314,77370
1,1315,77291
1,1316,77493
1,1317,77500
1,1318,77354
1,1319,77423
1,1320,77382
1,1321,77341
1,1322,77342
1,1323,77452
1,1324,77365
1,1325,77367
1,1326,77439
1,1327,77240
1,1328,77346
1,1329,77310
1,1330,77306
1,1331,77220
1,1332,77155
1,1333,77110
1,1334,77050
1,1335,77001
1,1336,76881
1,1337,76944
1,1338,76742
1,1339,75568
1,1340,117250
