1,1,63022
1,2,63010
1,3,63016
1,4,62987
1,5,62985
1,6,63021
1,7,63004
1,8,63022
1,9,63040
1,10,63017
1,11,62988
1,12,63009
1,13,63051
1,14,63063
1,15,63019
1,16,63029
1,17,63015
1,18,63077
1,19,63039
1,20,63010
1,21,63028
1,22,63097
1,23,63070
1,24,63093
1,25,63049
1,26,63114
1,27,63103
1,28,63068
1,29,63093
1,30,63077
1,31,63070
1,32,63077
1,33,63118
1,34,63067
1,35,63090
1,36,63108
1,37,63082
1,38,63129
1,39,63106
1,40,63085
1,41,63101
1,42,63151
1,43,63173
1,44,63238
1,45,63159
1,46,63204
1,47,63225
1,48,63180
1,49,63214
1,50,63229
1,51,63210
1,52,63229
1,53,63260
1,54,63274
1,55,63309
1,56,63291
1,57,63309
1,58,63407
1,59,63364
1,60,63380
1,61,63455
1,62,63473
1,63,63491
1,64,63515
1,65,63564
1,66,63534
1,67,63638
1,68,63645
1,69,63732
1,70,63719
1,71,63786
1,72,63774
1,73,63790
1,74,63836
1,75,63788
1,76,63749
1,77,63792
1,78,63745
1,79,63721
1,80,63702
1,81,63704
1,82,63698
1,83,63665
1,84,63700
1,85,63641
1,86,63623
1,87,63634
1,88,63614
1,89,63587
1,90,63571
1,91,63541
1,92,63587
1,93,63496
1,94,63479
1,95,63544
1,96,63483
1,97,63431
1,98,63410
1,99,63386
1,100,63416
1,101,63434
1,102,63429
1,103,63390
1,104,63432
1,105,63425
1,106,63451
1,107,63578
1,108,63651
1,109,63668
1,110,63823
1,111,64215
1,112,64711
1,113,65686
1,114,67986
1,115,71444
1,116,73319
1,117,74982
1,118,77407
1,119,78600
1,120,76589
1,121,75247
1,122,74374
1,123,72129
1,124,69255
1,125,67994
1,126,67042
1,127,65990
1,128,65257
1,129,64989
1,130,64743
1,131,64581
1,132,64368
1,133,64312
1,134,64200
1,135,64083
1,136,63989
1,137,63856
1,138,63786
1,139,63693
1,140,63628
1,141,63602
1,142,63573
1,143,63543
1,144,63444
1,145,63456
1,146,63358
1,147,63424
1,148,63387
1,149,63351
1,150,63337
1,151,63338
1,152,63304
1,153,63295
1,154,63317
1,155,63301
1,156,63325
1,157,63243
1,158,63250
1,159,63284
1,160,63294
1,161,63254
1,162,63275
1,163,63262
1,164,63247
1,165,63263
1,166,63252
1,167,63272
1,168,63333
1,169,63299
1,170,63322
1,171,63372
1,172,63324
1,173,63540
1,174,63692
1,175,63656
1,176,63398
1,177,63421
1,178,63453
1,179,63462
1,180,63461
1,181,63507
1,182,63599
1,183,63639
1,184,63664
1,185,63852
1,186,63992
1,187,64171
1,188,64440
1,189,64830
1,190,65308
1,191,66122
1,192,66921
1,193,68608
1,194,71995
1,195,75863
1,196,81629
1,197,91186
1,198,100120
1,199,97338
1,200,101291
1,201,104165
1,202,100245
1,203,93101
1,204,90895
1,205,86458
1,206,80501
1,207,77068
1,208,74464
1,209,71841
1,210,70323
1,211,69342
1,212,68243
1,213,67656
1,214,67350
1,215,66987
1,216,66461
1,217,66222
1,218,65991
1,219,65821
1,220,65580
1,221,65470
1,222,65303
1,223,65163
1,224,65084
1,225,65057
1,226,64777
1,227,64671
1,228,64679
1,229,64487
1,230,64475
1,231,64411
1,232,64393
1,233,64332
1,234,64302
1,235,64231
1,236,64231
1,237,64236
1,238,64214
1,239,64151
1,240,64156
1,241,64169
1,242,64107
1,243,64152
1,244,64099
1,245,64070
1,246,64032
1,247,64062
1,248,64052
1,249,64063
1,250,64077
1,251,64066
1,252,64075
1,253,64069
1,254,64054
1,255,64064
1,256,64061
1,257,64057
1,258,64049
1,259,64022
1,260,64009
1,261,64059
1,262,64010
1,263,64084
1,264,64038
1,265,64072
1,266,64051
1,267,64035
1,268,64021
1,269,64025
1,270,64073
1,271,64045
1,272,64065
1,273,64056
1,274,64094
1,275,64056
1,276,64126
1,277,64085
1,278,64073
1,279,64125
1,280,64128
1,281,64155
1,282,64081
1,283,64170
1,284,64140
1,285,64110
1,286,64100
1,287,64114
1,288,64110
1,289,64177
1,290,64161
1,291,64162
1,292,64157
1,293,64176
1,294,64125
1,295,64105
1,296,64142
1,297,64186
1,298,64155
1,299,64104
1,300,64073
1,301,64069
1,302,64105
1,303,64129
1,304,64117
1,305,64241
1,306,64074
1,307,64060
1,308,64131
1,309,64071
1,310,64069
1,311,64051
1,312,64079
1,313,63995
1,314,64042
1,315,63969
1,316,64014
1,317,63990
1,318,64026
1,319,64051
1,320,64065
1,321,64125
1,322,64137
1,323,64210
1,324,64293
1,325,64325
1,326,64344
1,327,64445
1,328,64401
1,329,64361
1,330,64359
1,331,64377
1,332,64303
1,333,64319
1,334,64358
1,335,64280
1,336,64169
1,337,64200
1,338,64148
1,339,64138
1,340,64107
1,341,64168
1,342,64107
1,343,64097
1,344,64027
1,345,64050
1,346,64016
1,347,64045
1,348,64042
1,349,64045
1,350,64042
1,351,64057
1,352,64029
1,353,63986
1,354,64090
1,355,64070
1,356,64011
1,357,64066
1,358,64030
1,359,64001
1,360,64059
1,361,64097
1,362,63959
1,363,63980
1,364,64005
1,365,64035
1,366,63998
1,367,64009
1,368,63992
1,369,63982
1,370,63983
1,371,64058
1,372,64026
1,373,63984
1,374,64021
1,375,63992
1,376,63959
1,377,64010
1,378,63998
1,379,64020
1,380,64002
1,381,64063
1,382,64027
1,383,64011
1,384,64035
1,385,63979
1,386,64014
1,387,64007
1,388,64030
1,389,64059
1,390,64035
1,391,64017
1,392,64063
1,393,64040
1,394,64064
1,395,64058
1,396,64043
1,397,64076
1,398,64008
1,399,64022
1,400,64078
1,401,64092
1,402,64061
1,403,64089
1,404,64032
1,405,64039
1,406,64083
1,407,64122
1,408,64105
1,409,64027
1,410,64028
1,411,64106
1,412,64129
1,413,64115
1,414,64162
1,415,64153
1,416,64138
1,417,64116
1,418,64125
1,419,64116
1,420,64112
1,421,64139
1,422,64087
1,423,64072
1,424,64070
1,425,64095
1,426,64122
1,427,64108
1,428,64066
1,429,64063
1,430,64072
1,431,64113
1,432,64115
1,433,64071
1,434,64099
1,435,64072
1,436,64059
1,437,64081
1,438,64096
1,439,64073
1,440,64066
1,441,64072
1,442,64078
1,443,64066
1,444,64044
1,445,64034
1,446,64114
1,447,64063
1,448,64056
1,449,64079
1,450,64117
1,451,64152
1,452,64110
1,453,64114
1,454,64125
1,455,64155
1,456,64115
1,457,64120
1,458,64086
1,459,64115
1,460,64115
1,461,64212
1,462,64145
1,463,64141
1,464,64122
1,465,64151
1,466,64206
1,467,64113
1,468,64144
1,469,64137
1,470,64200
1,471,64246
1,472,64182
1,473,64164
1,474,64171
1,475,64175
1,476,64134
1,477,64159
1,478,64145
1,479,64159
1,480,64168
1,481,64182
1,482,64172
1,483,64101
1,484,64115
1,485,64110
1,486,64116
1,487,64198
1,488,64115
1,489,64097
1,490,64116
1,491,64142
1,492,64162
1,493,64081
1,494,64132
1,495,64144
1,496,64138
1,497,64070
1,498,64102
1,499,64087
1,500,64126
1,501,64108
1,502,64150
1,503,64157
1,504,64193
1,505,64115
1,506,64100
1,507,64168
1,508,64200
1,509,64075
1,510,64089
1,511,64085
1,512,64191
1,513,64156
1,514,64198
1,515,64158
1,516,64157
1,517,64179
1,518,64138
1,519,64165
1,520,64184
1,521,64207
1,522,64304
1,523,64190
1,524,64324
1,525,64252
1,526,64277
1,527,64359
1,528,64409
1,529,64433
1,530,64481
1,531,64500
1,532,64544
1,533,64437
1,534,64361
1,535,64336
1,536,64348
1,537,64366
1,538,64362
1,539,64426
1,540,64388
1,541,64375
1,542,64360
1,543,64318
1,544,64299
1,545,64278
1,546,64317
1,547,64296
1,548,64345
1,549,64325
1,550,64343
1,551,64357
1,552,64382
1,553,64399
1,554,64415
1,555,64422
1,556,64459
1,557,64457
1,558,64508
1,559,64562
1,560,64614
1,561,64637
1,562,64809
1,563,64905
1,564,65071
1,565,65354
1,566,65652
1,567,66231
1,568,66866
1,569,67619
1,570,68581
1,571,69542
1,572,70192
1,573,70577
1,574,70488
1,575,70155
1,576,69385
1,577,68423
1,578,67471
1,579,66756
1,580,66076
1,581,65650
1,582,65260
1,583,65008
1,584,64838
1,585,64711
1,586,64697
1,587,64617
1,588,64607
1,589,64513
1,590,64468
1,591,64438
1,592,64415
1,593,64375
1,594,64402
1,595,64323
1,596,64325
1,597,64356
1,598,64316
1,599,64296
1,600,64307
1,601,64348
1,602,64289
1,603,64267
1,604,64274
1,605,64254
1,606,64292
1,607,64319
1,608,64325
1,609,64301
1,610,64327
1,611,64301
1,612,64309
1,613,64325
1,614,64352
1,615,64341
1,616,64366
1,617,64334
1,618,64377
1,619,64337
1,620,64339
1,621,64334
1,622,64363
1,623,64310
1,624,64352
1,625,64434
1,626,64436
1,627,64432
1,628,64424
1,629,64451
1,630,64393
1,631,64381
1,632,64432
1,633,64369
1,634,64410
1,635,64369
1,636,64437
1,637,64458
1,638,64452
1,639,64472
1,640,64422
1,641,64405
1,642,64365
1,643,64451
1,644,64349
1,645,64472
1,646,64372
1,647,64433
1,648,64437
1,649,64455
1,650,64394
1,651,64552
1,652,64446
1,653,64550
1,654,64580
1,655,64578
1,656,64570
1,657,64620
1,658,64689
1,659,64741
1,660,64767
1,661,64889
1,662,64989
1,663,65043
1,664,65156
1,665,65327
1,666,65429
1,667,65662
1,668,65779
1,669,65854
1,670,66117
1,671,66186
1,672,66204
1,673,66239
1,674,66120
1,675,66095
1,676,65926
1,677,65757
1,678,65584
1,679,65482
1,680,65407
1,681,65640
1,682,65274
1,683,65290
1,684,65213
1,685,65362
1,686,65326
1,687,65359
1,688,65405
1,689,65438
1,690,65556
1,691,65613
1,692,65765
1,693,65898
1,694,66005
1,695,66160
1,696,66389
1,697,66512
1,698,66576
1,699,66616
1,700,66579
1,701,66534
1,702,66363
1,703,66226
1,704,66024
1,705,65858
1,706,65620
1,707,65519
1,708,65438
1,709,65334
1,710,65250
1,711,65218
1,712,65171
1,713,65194
1,714,65133
1,715,65086
1,716,65080
1,717,65028
1,718,64949
1,719,64877
1,720,64898
1,721,64777
1,722,64809
1,723,64753
1,724,64724
1,725,64748
1,726,64673
1,727,64623
1,728,64640
1,729,64616
1,730,64654
1,731,64637
1,732,64585
1,733,64608
1,734,64615
1,735,64559
1,736,64593
1,737,64531
1,738,64498
1,739,64553
1,740,64549
1,741,64537
1,742,64528
1,743,64534
1,744,64546
1,745,64604
1,746,64577
1,747,64494
1,748,64529
1,749,64551
1,750,64608
1,751,64602
1,752,64553
1,753,64517
1,754,64563
1,755,64534
1,756,64511
1,757,64583
1,758,64526
1,759,64494
1,760,64526
1,761,64518
1,762,64540
1,763,64566
1,764,64565
1,765,64549
1,766,64509
1,767,64505
1,768,64528
1,769,64599
1,770,64532
1,771,64583
1,772,64582
1,773,64539
1,774,64594
1,775,64621
1,776,64588
1,777,64573
1,778,64565
1,779,64538
1,780,64613
1,781,64587
1,782,64644
1,783,64649
1,784,64676
1,785,64724
1,786,64680
1,787,64652
1,788,64679
1,789,64706
1,790,64662
1,791,64710
1,792,64707
1,793,64763
1,794,64798
1,795,64724
1,796,64845
1,797,64870
1,798,64890
1,799,64828
1,800,64910
1,801,64943
1,802,65013
1,803,65106
1,804,65159
1,805,65124
1,806,65204
1,807,65305
1,808,65382
1,809,65547
1,810,65598
1,811,65484
1,812,65561
1,813,65512
1,814,65385
1,815,65442
1,816,65219
1,817,65245
1,818,65195
1,819,65081
1,820,65076
1,821,65001
1,822,64991
1,823,64952
1,824,64921
1,825,64961
1,826,64871
1,827,64914
1,828,64915
1,829,64938
1,830,64847
1,831,64906
1,832,64896
1,833,64773
1,834,64800
1,835,64885
1,836,64892
1,837,64761
1,838,64815
1,839,64874
1,840,64857
1,841,64848
1,842,64872
1,843,64822
1,844,64860
1,845,64859
1,846,64850
1,847,64840
1,848,64818
1,849,64889
1,850,64900
1,851,64864
1,852,64891
1,853,64972
1,854,64917
1,855,64964
1,856,64951
1,857,64855
1,858,64889
1,859,64870
1,860,64905
1,861,64927
1,862,64898
1,863,64971
1,864,64968
1,865,64958
1,866,65009
1,867,65065
1,868,64986
1,869,65100
1,870,65099
1,871,64979
1,872,65139
1,873,65106
1,874,65084
1,875,65186
1,876,65155
1,877,65182
1,878,65146
1,879,65172
1,880,65213
1,881,65249
1,882,65185
1,883,65240
1,884,65223
1,885,65215
1,886,65186
1,887,65245
1,888,65237
1,889,65306
1,890,65250
1,891,65278
1,892,65318
1,893,65354
1,894,65341
1,895,65360
1,896,65373
1,897,65363
1,898,65466
1,899,65470
1,900,65488
1,901,65503
1,902,65508
1,903,65536
1,904,65587
1,905,65590
1,906,65641
1,907,65656
1,908,65684
1,909,65753
1,910,65841
1,911,65813
1,912,65919
1,913,66019
1,914,65960
1,915,66140
1,916,66200
1,917,66214
1,918,66321
1,919,66481
1,920,66671
1,921,66778
1,922,66902
1,923,67155
1,924,67296
1,925,67473
1,926,67622
1,927,67737
1,928,67731
1,929,67870
1,930,67872
1,931,67811
1,932,67670
1,933,67511
1,934,67207
1,935,67052
1,936,66840
1,937,66649
1,938,66530
1,939,66425
1,940,66305
1,941,66327
1,942,66234
1,943,66219
1,944,66220
1,945,66159
1,946,66167
1,947,66229
1,948,66142
1,949,66157
1,950,66113
1,951,66126
1,952,66050
1,953,65869
1,954,65820
1,955,65914
1,956,65732
1,957,65670
1,958,65654
1,959,65603
1,960,65532
1,961,65486
1,962,65427
1,963,65508
1,964,65467
1,965,65449
1,966,65442
1,967,65359
1,968,65321
1,969,65306
1,970,65319
1,971,65352
1,972,65267
1,973,65219
1,974,65300
1,975,65297
1,976,65305
1,977,65289
1,978,65238
1,979,65271
1,980,65220
1,981,65203
1,982,65206
1,983,65186
1,984,65190
1,985,65155
1,986,65189
1,987,65217
1,988,65174
1,989,65162
1,990,65179
1,991,65199
1,992,65153
1,993,65158
1,994,65150
1,995,65149
1,996,65209
1,997,65143
1,998,65153
1,999,65164
1,1000,65123
1,1001,65132
1,1002,65141
1,1003,65107
1,1004,65147
1,1005,65150
1,1006,65127
1,1007,65139
1,1008,65172
1,1009,65121
1,1010,65114
1,1011,65116
1,1012,65154
1,1013,65110
1,1014,65086
1,1015,65197
1,1016,65218
1,1017,65296
1,1018,65223
1,1019,65224
1,1020,65294
1,1021,65209
1,1022,65180
1,1023,65197
1,1024,65106
1,1025,65109
1,1026,65152
1,1027,65112
1,1028,65110
1,1029,65102
1,1030,65165
1,1031,65122
1,1032,65124
1,1033,65069
1,1034,65168
1,1035,65165
1,1036,65219
1,1037,65144
1,1038,65171
1,1039,65100
1,1040,65120
1,1041,65109
1,1042,65143
1,1043,65161
1,1044,65146
1,1045,65133
1,1046,65123
1,1047,65134
1,1048,65124
1,1049,65119
1,1050,65145
1,1051,65080
1,1052,65174
1,1053,65107
1,1054,65164
1,1055,65167
1,1056,65098
1,1057,65182
1,1058,65108
1,1059,65129
1,1060,65104
1,1061,65095
1,1062,65186
1,1063,65172
1,1064,65196
1,1065,65281
1,1066,65312
1,1067,65230
1,1068,65233
1,1069,65239
1,1070,65102
1,1071,65150
1,1072,65094
1,1073,65165
1,1074,65135
1,1075,65150
1,1076,65184
1,1077,65133
1,1078,65052
1,1079,65135
1,1080,65116
1,1081,65159
1,1082,65092
1,1083,65202
1,1084,65138
1,1085,65172
1,1086,65194
1,1087,65156
1,1088,65120
1,1089,65202
1,1090,65120
1,1091,65191
1,1092,65212
1,1093,65133
1,1094,65209
1,1095,65262
1,1096,65157
1,1097,65189
1,1098,65183
1,1099,65210
1,1100,65202
1,1101,65211
1,1102,65195
1,1103,65244
1,1104,65216
1,1105,65164
1,1106,65139
1,1107,65182
1,1108,65165
1,1109,65201
1,1110,65191
1,1111,65189
1,1112,65202
1,1113,65186
1,1114,65221
1,1115,65283
1,1116,65207
1,1117,65222
1,1118,65208
1,1119,65247
1,1120,65263
1,1121,65214
1,1122,65319
1,1123,65293
1,1124,65328
1,1125,65334
1,1126,65306
1,1127,65266
1,1128,65279
1,1129,65262
1,1130,65315
1,1131,65370
1,1132,65326
1,1133,65229
1,1134,65253
1,1135,65250
1,1136,65216
1,1137,65188
1,1138,65223
1,1139,65290
1,1140,65222
1,1141,65234
1,1142,65247
1,1143,65211
1,1144,65249
1,1145,65282
1,1146,65402
1,1147,65160
1,1148,65178
1,1149,65292
1,1150,65164
1,1151,65229
1,1152,65205
1,1153,65165
1,1154,65204
1,1155,65267
1,1156,65168
1,1157,65179
1,1158,65219
1,1159,65220
1,1160,65231
1,1161,65225
1,1162,65197
1,1163,65190
1,1164,65191
1,1165,65238
1,1166,65206
1,1167,65194
1,1168,65173
1,1169,65243
1,1170,65269
1,1171,65233
1,1172,65208
1,1173,65165
1,1174,65161
1,1175,65133
1,1176,65193
1,1177,65194
1,1178,65163
1,1179,65128
1,1180,65110
1,1181,65140
1,1182,65169
1,1183,65249
1,1184,65168
1,1185,65146
1,1186,65175
1,1187,65164
1,1188,65183
1,1189,65199
1,1190,65141
1,1191,65187
1,1192,65173
1,1193,65153
1,1194,65145
1,1195,65154
1,1196,65082
1,1197,65186
1,1198,65197
1,1199,65114
1,1200,65161
1,1201,65139
1,1202,65220
1,1203,65177
1,1204,65183
1,1205,65175
1,1206,65134
1,1207,65177
1,1208,65191
1,1209,65214
1,1210,65159
1,1211,65156
1,1212,65192
1,1213,65089
1,1214,65203
1,1215,65175
1,1216,65215
1,1217,65207
1,1218,65141
1,1219,65184
1,1220,65172
1,1221,65257
1,1222,65190
1,1223,65226
1,1224,65192
1,1225,65146
1,1226,65121
1,1227,65303
1,1228,65157
1,1229,65141
1,1230,65192
1,1231,65202
1,1232,65227
1,1233,65224
1,1234,65162
1,1235,65144
1,1236,65164
1,1237,65205
1,1238,65182
1,1239,65134
1,1240,65168
1,1241,65183
1,1242,65159
1,1243,65159
1,1244,65133
1,1245,65183
1,1246,65148
1,1247,65208
1,1248,65168
1,1249,65140
1,1250,65182
1,1251,65174
1,1252,65164
1,1253,65210
1,1254,65217
1,1255,65126
1,1256,65144
1,1257,65205
1,1258,65207
1,1259,65103
1,1260,65117
1,1261,65146
1,1262,65087
1,1263,65119
1,1264,65148
1,1265,65061
1,1266,65149
1,1267,65121
1,1268,65075
1,1269,65114
1,1270,65115
1,1271,65024
1,1272,65021
1,1273,65070
1,1274,65099
1,1275,65072
1,1276,65101
1,1277,65127
1,1278,65001
1,1279,65029
1,1280,65119
1,1281,65061
1,1282,65028
1,1283,64926
1,1284,64984
1,1285,64986
1,1286,65021
1,1287,65004
1,1288,64970
1,1289,64938
1,1290,64976
1,1291,64895
1,1292,64878
1,1293,64950
1,1294,64911
1,1295,64867
1,1296,64891
1,1297,64904
1,1298,64953
1,1299,64909
1,1300,64805
1,1301,64816
1,1302,64876
1,1303,64838
1,1304,64885
1,1305,64877
1,1306,64819
1,1307,64821
1,1308,64848
1,1309,64767
1,1310,64794
1,1311,64876
1,1312,64833
1,1313,64768
1,1314,64753
1,1315,64813
1,1316,64785
1,1317,64751
1,1318,64717
1,1319,64727
1,1320,64754
1,1321,64761
1,1322,64747
1,1323,64685
1,1324,64672
1,1325,64671
1,1326,64712
1,1327,64649
1,1328,64598
1,1329,64588
1,1330,64604
1,1331,64625
1,1332,64578
1,1333,64510
1,1334,64488
1,1335,64539
1,1336,64435
1,1337,64458
1,1338,64359
1,1339,64107
1,1340,72712
