1,1,64232
1,2,64113
1,3,64195
1,4,64111
1,5,64205
1,6,64208
1,7,64198
1,8,64229
1,9,64281
1,10,64161
1,11,64199
1,12,64240
1,13,64244
1,14,64283
1,15,64280
1,16,64270
1,17,64334
1,18,64416
1,19,64328
1,20,64351
1,21,64334
1,22,64367
1,23,64461
1,24,64510
1,25,64414
1,26,64520
1,27,64384
1,28,64502
1,29,64474
1,30,64529
1,31,64578
1,32,64542
1,33,64605
1,34,64588
1,35,64578
1,36,64660
1,37,64660
1,38,64661
1,39,64723
1,40,64669
1,41,64791
1,42,64843
1,43,64943
1,44,65229
1,45,64999
1,46,65011
1,47,65091
1,48,65104
1,49,65210
1,50,65112
1,51,65185
1,52,65261
1,53,65423
1,54,65539
1,55,65541
1,56,65578
1,57,65680
1,58,65880
1,59,65781
1,60,65815
1,61,65958
1,62,66145
1,63,66252
1,64,66285
1,65,66387
1,66,66432
1,67,66566
1,68,66671
1,69,66777
1,70,66849
1,71,66977
1,72,67107
1,73,67187
1,74,67392
1,75,67125
1,76,67078
1,77,67108
1,78,66857
1,79,66909
1,80,66854
1,81,66751
1,82,66723
1,83,66621
1,84,66488
1,85,66357
1,86,66307
1,87,66371
1,88,66192
1,89,66170
1,90,66136
1,91,65977
1,92,66070
1,93,65882
1,94,65813
1,95,65885
1,96,65711
1,97,65749
1,98,65567
1,99,65556
1,100,65394
1,101,65451
1,102,65508
1,103,65358
1,104,65550
1,105,65415
1,106,65622
1,107,65739
1,108,65942
1,109,66296
1,110,66727
1,111,67736
1,112,69198
1,113,71452
1,114,77710
1,115,86191
1,116,90786
1,117,94167
1,118,101025
1,119,105379
1,120,100076
1,121,94275
1,122,93088
1,123,88761
1,124,81190
1,125,76668
1,126,74650
1,127,72567
1,128,70251
1,129,69366
1,130,68992
1,131,68406
1,132,67769
1,133,67611
1,134,67673
1,135,67112
1,136,66824
1,137,66622
1,138,66411
1,139,66198
1,140,65953
1,141,65844
1,142,65602
1,143,65653
1,144,65395
1,145,65355
1,146,65179
1,147,65221
1,148,65134
1,149,65078
1,150,65048
1,151,65073
1,152,64948
1,153,64863
1,154,65042
1,155,64903
1,156,64832
1,157,64889
1,158,64834
1,159,64922
1,160,64845
1,161,64852
1,162,64841
1,163,64820
1,164,64800
1,165,64930
1,166,64909
1,167,64855
1,168,64912
1,169,64803
1,170,65040
1,171,65035
1,172,64872
1,173,65013
1,174,65001
1,175,65049
1,176,65102
1,177,65136
1,178,65137
1,179,65182
1,180,65144
1,181,65299
1,182,65481
1,183,65573
1,184,65834
1,185,66107
1,186,66437
1,187,66809
1,188,67528
1,189,68481
1,190,69823
1,191,71512
1,192,73444
1,193,77157
1,194,83453
1,195,92109
1,196,104877
1,197,126822
1,198,150891
1,199,155364
1,200,167501
1,201,178611
1,202,167728
1,203,153743
1,204,147456
1,205,132406
1,206,117570
1,207,104521
1,208,96555
1,209,88529
1,210,84514
1,211,80267
1,212,77661
1,213,76723
1,214,75829
1,215,74693
1,216,73746
1,217,73178
1,218,72456
1,219,71890
1,220,71600
1,221,70987
1,222,70480
1,223,70346
1,224,70271
1,225,69689
1,226,69277
1,227,69032
1,228,68653
1,229,68562
1,230,68353
1,231,68139
1,232,68150
1,233,67989
1,234,67951
1,235,67868
1,236,67790
1,237,67833
1,238,67666
1,239,67504
1,240,67476
1,241,67584
1,242,67433
1,243,67558
1,244,67489
1,245,67555
1,246,67443
1,247,67364
1,248,67388
1,249,67399
1,250,67445
1,251,67386
1,252,67266
1,253,67334
1,254,67356
1,255,67446
1,256,67414
1,257,67382
1,258,67393
1,259,67307
1,260,67336
1,261,67481
1,262,67357
1,263,67400
1,264,67353
1,265,67423
1,266,67379
1,267,67404
1,268,67479
1,269,67358
1,270,67544
1,271,67450
1,272,67461
1,273,67416
1,274,67459
1,275,67496
1,276,67564
1,277,67678
1,278,67598
1,279,67586
1,280,67588
1,281,67677
1,282,67734
1,283,67855
1,284,67915
1,285,67746
1,286,67899
1,287,67867
1,288,67831
1,289,67885
1,290,67935
1,291,67809
1,292,67934
1,293,67807
1,294,67820
1,295,67817
1,296,67735
1,297,67879
1,298,67844
1,299,67682
1,300,67743
1,301,67684
1,302,67698
1,303,67700
1,304,67659
1,305,68177
1,306,67620
1,307,67547
1,308,67505
1,309,67521
1,310,67515
1,311,67301
1,312,67330
1,313,67283
1,314,67351
1,315,67080
1,316,66906
1,317,66925
1,318,66949
1,319,66926
1,320,66851
1,321,66986
1,322,66961
1,323,67002
1,324,67144
1,325,67075
1,326,67107
1,327,67134
1,328,67050
1,329,67038
1,330,66983
1,331,67123
1,332,66952
1,333,67184
1,334,67270
1,335,67017
1,336,66937
1,337,67063
1,338,67082
1,339,67151
1,340,67102
1,341,67377
1,342,67063
1,343,67215
1,344,67085
1,345,67172
1,346,67147
1,347,67220
1,348,67314
1,349,67330
1,350,67297
1,351,67272
1,352,67380
1,353,67385
1,354,67293
1,355,67407
1,356,67291
1,357,67353
1,358,67296
1,359,67266
1,360,67321
1,361,67738
1,362,67304
1,363,67303
1,364,67360
1,365,67333
1,366,67380
1,367,67341
1,368,67297
1,369,67286
1,370,67339
1,371,67327
1,372,67350
1,373,67201
1,374,67393
1,375,67328
1,376,67481
1,377,67363
1,378,67204
1,379,67321
1,380,67373
1,381,67361
1,382,67273
1,383,67422
1,384,67345
1,385,67434
1,386,67499
1,387,67424
1,388,67474
1,389,67424
1,390,67504
1,391,67390
1,392,67444
1,393,67418
1,394,67481
1,395,67508
1,396,67536
1,397,67514
1,398,67488
1,399,67444
1,400,67591
1,401,67612
1,402,67490
1,403,67617
1,404,67528
1,405,67594
1,406,67730
1,407,67723
1,408,67808
1,409,67635
1,410,67763
1,411,67852
1,412,67768
1,413,67861
1,414,67905
1,415,67848
1,416,67880
1,417,67752
1,418,67662
1,419,67728
1,420,67644
1,421,67743
1,422,67629
1,423,67661
1,424,67784
1,425,67618
1,426,67509
1,427,67610
1,428,67626
1,429,67628
1,430,67542
1,431,67565
1,432,67672
1,433,67709
1,434,67880
1,435,67554
1,436,67497
1,437,67458
1,438,67530
1,439,67507
1,440,67592
1,441,67559
1,442,67453
1,443,67506
1,444,67458
1,445,67459
1,446,67561
1,447,67599
1,448,67571
1,449,67556
1,450,67671
1,451,67636
1,452,67553
1,453,67535
1,454,67617
1,455,67735
1,456,67659
1,457,67713
1,458,67698
1,459,67738
1,460,67682
1,461,67916
1,462,67803
1,463,67811
1,464,67806
1,465,67840
1,466,67849
1,467,67888
1,468,67896
1,469,67938
1,470,68087
1,471,68177
1,472,67959
1,473,67962
1,474,67935
1,475,67921
1,476,67834
1,477,67944
1,478,67933
1,479,67962
1,480,67860
1,481,67901
1,482,67893
1,483,67807
1,484,67829
1,485,67742
1,486,67850
1,487,67776
1,488,67777
1,489,67773
1,490,67712
1,491,67796
1,492,67711
1,493,67586
1,494,67789
1,495,67823
1,496,67781
1,497,67633
1,498,67799
1,499,67633
1,500,67682
1,501,67598
1,502,67689
1,503,67731
1,504,67622
1,505,67730
1,506,67727
1,507,67739
1,508,67954
1,509,67609
1,510,67703
1,511,67666
1,512,67694
1,513,67693
1,514,67831
1,515,67708
1,516,67684
1,517,67881
1,518,67677
1,519,67794
1,520,67825
1,521,67855
1,522,68175
1,523,67878
1,524,67984
1,525,67986
1,526,68040
1,527,68188
1,528,68506
1,529,68645
1,530,68684
1,531,68709
1,532,68649
1,533,68428
1,534,68235
1,535,68155
1,536,68106
1,537,68062
1,538,68126
1,539,68220
1,540,68022
1,541,68041
1,542,67891
1,543,67864
1,544,67815
1,545,67770
1,546,67892
1,547,67730
1,548,67910
1,549,67774
1,550,67805
1,551,67824
1,552,67770
1,553,67830
1,554,67759
1,555,67784
1,556,67789
1,557,67865
1,558,67739
1,559,67814
1,560,67739
1,561,67763
1,562,67860
1,563,67728
1,564,67834
1,565,67689
1,566,67646
1,567,67763
1,568,67699
1,569,67674
1,570,67790
1,571,67838
1,572,67750
1,573,67738
1,574,67724
1,575,67789
1,576,67858
1,577,67854
1,578,67695
1,579,67714
1,580,67914
1,581,67743
1,582,67712
1,583,67669
1,584,67703
1,585,67774
1,586,67808
1,587,67928
1,588,67858
1,589,67827
1,590,67852
1,591,67884
1,592,67843
1,593,67810
1,594,67915
1,595,67827
1,596,67848
1,597,67906
1,598,67955
1,599,67904
1,600,67925
1,601,67915
1,602,68005
1,603,67905
1,604,67888
1,605,67918
1,606,67979
1,607,67979
1,608,68004
1,609,68102
1,610,68084
1,611,68150
1,612,68151
1,613,68204
1,614,68256
1,615,68296
1,616,68334
1,617,68336
1,618,68397
1,619,68390
1,620,68412
1,621,68473
1,622,68539
1,623,68501
1,624,68582
1,625,68606
1,626,68769
1,627,68661
1,628,68731
1,629,68918
1,630,69000
1,631,68815
1,632,69060
1,633,68993
1,634,68943
1,635,69130
1,636,69272
1,637,69291
1,638,69374
1,639,69523
1,640,69590
1,641,69707
1,642,69967
1,643,70364
1,644,70480
1,645,70907
1,646,71214
1,647,71765
1,648,72268
1,649,72974
1,650,73583
1,651,74538
1,652,75579
1,653,76901
1,654,78195
1,655,79621
1,656,81218
1,657,82779
1,658,84235
1,659,85613
1,660,86420
1,661,87540
1,662,87821
1,663,87300
1,664,86789
1,665,85639
1,666,84071
1,667,82067
1,668,80085
1,669,78218
1,670,76685
1,671,74968
1,672,73711
1,673,72754
1,674,71889
1,675,71361
1,676,70789
1,677,70509
1,678,70196
1,679,70145
1,680,69966
1,681,70921
1,682,69739
1,683,69629
1,684,69485
1,685,69613
1,686,69380
1,687,69395
1,688,69361
1,689,69412
1,690,69276
1,691,69452
1,692,69459
1,693,69302
1,694,69371
1,695,69734
1,696,70869
1,697,70292
1,698,69884
1,699,69839
1,700,69769
1,701,69889
1,702,69975
1,703,70056
1,704,70148
1,705,70200
1,706,70158
1,707,70242
1,708,70246
1,709,70190
1,710,70085
1,711,70053
1,712,69923
1,713,69950
1,714,69908
1,715,69838
1,716,69676
1,717,69661
1,718,69550
1,719,69529
1,720,69466
1,721,69244
1,722,69177
1,723,69304
1,724,69198
1,725,69256
1,726,69181
1,727,69100
1,728,69151
1,729,69071
1,730,69101
1,731,69063
1,732,69197
1,733,69245
1,734,69077
1,735,69149
1,736,69163
1,737,69124
1,738,69204
1,739,69202
1,740,69043
1,741,69125
1,742,68960
1,743,68891
1,744,68950
1,745,68926
1,746,69019
1,747,68706
1,748,68637
1,749,68823
1,750,68794
1,751,68759
1,752,68668
1,753,68626
1,754,68551
1,755,68518
1,756,68677
1,757,68585
1,758,68452
1,759,68340
1,760,68405
1,761,68447
1,762,68375
1,763,68746
1,764,68906
1,765,68638
1,766,68712
1,767,68178
1,768,68205
1,769,68220
1,770,68117
1,771,68208
1,772,68133
1,773,68260
1,774,68171
1,775,68194
1,776,68224
1,777,68136
1,778,68173
1,779,68146
1,780,68177
1,781,68113
1,782,68146
1,783,68141
1,784,68199
1,785,68287
1,786,68198
1,787,68024
1,788,68056
1,789,68139
1,790,68156
1,791,68269
1,792,68185
1,793,68082
1,794,68116
1,795,67987
1,796,68095
1,797,68233
1,798,68118
1,799,68129
1,800,68075
1,801,68124
1,802,68188
1,803,68227
1,804,68104
1,805,68014
1,806,68059
1,807,68161
1,808,68016
1,809,67951
1,810,68054
1,811,68088
1,812,67995
1,813,68055
1,814,68083
1,815,68183
1,816,68132
1,817,68139
1,818,68067
1,819,68066
1,820,68138
1,821,68105
1,822,68129
1,823,68098
1,824,68102
1,825,68138
1,826,68154
1,827,68115
1,828,68204
1,829,68062
1,830,68131
1,831,68220
1,832,68174
1,833,68070
1,834,68170
1,835,68197
1,836,68406
1,837,68084
1,838,68194
1,839,68262
1,840,68278
1,841,68325
1,842,68473
1,843,68304
1,844,68283
1,845,68356
1,846,68316
1,847,68353
1,848,68480
1,849,68389
1,850,68425
1,851,68427
1,852,68434
1,853,68632
1,854,68456
1,855,68490
1,856,68479
1,857,68506
1,858,68527
1,859,68491
1,860,68521
1,861,68543
1,862,68459
1,863,68756
1,864,68628
1,865,68658
1,866,68879
1,867,68729
1,868,68670
1,869,68836
1,870,69147
1,871,68977
1,872,69045
1,873,68876
1,874,68903
1,875,69006
1,876,69001
1,877,69115
1,878,68986
1,879,69065
1,880,69083
1,881,69243
1,882,69239
1,883,69266
1,884,69258
1,885,69317
1,886,69336
1,887,69377
1,888,69428
1,889,69407
1,890,69382
1,891,69316
1,892,69527
1,893,69626
1,894,69567
1,895,69541
1,896,69690
1,897,69579
1,898,69719
1,899,69678
1,900,69788
1,901,69692
1,902,69695
1,903,69902
1,904,69841
1,905,69816
1,906,70031
1,907,70116
1,908,70173
1,909,70184
1,910,70218
1,911,70416
1,912,70540
1,913,70585
1,914,70701
1,915,70813
1,916,71013
1,917,71062
1,918,71563
1,919,72017
1,920,72245
1,921,72678
1,922,73183
1,923,74115
1,924,74569
1,925,75019
1,926,75543
1,927,75928
1,928,75911
1,929,75861
1,930,75745
1,931,75579
1,932,75235
1,933,75111
1,934,74873
1,935,74724
1,936,74745
1,937,74721
1,938,74440
1,939,74364
1,940,74192
1,941,74098
1,942,73963
1,943,73931
1,944,73814
1,945,73557
1,946,73298
1,947,73203
1,948,72911
1,949,72793
1,950,72471
1,951,72339
1,952,72217
1,953,71908
1,954,71768
1,955,71811
1,956,71483
1,957,71400
1,958,71195
1,959,70956
1,960,70834
1,961,70774
1,962,70615
1,963,70599
1,964,70504
1,965,70240
1,966,70287
1,967,70102
1,968,70182
1,969,70144
1,970,70049
1,971,69939
1,972,69952
1,973,69895
1,974,69874
1,975,69815
1,976,69856
1,977,69746
1,978,69681
1,979,69613
1,980,69548
1,981,69603
1,982,69545
1,983,69495
1,984,69412
1,985,69461
1,986,69529
1,987,69492
1,988,69339
1,989,69399
1,990,69443
1,991,69258
1,992,69444
1,993,69248
1,994,69339
1,995,69236
1,996,69298
1,997,69241
1,998,69151
1,999,69235
1,1000,69138
1,1001,69201
1,1002,69043
1,1003,69145
1,1004,69070
1,1005,69121
1,1006,68914
1,1007,69130
1,1008,68958
1,1009,69039
1,1010,68911
1,1011,68877
1,1012,68899
1,1013,68894
1,1014,68798
1,1015,68841
1,1016,69040
1,1017,69201
1,1018,68922
1,1019,68894
1,1020,68842
1,1021,68749
1,1022,68640
1,1023,68660
1,1024,68403
1,1025,68518
1,1026,68424
1,1027,68457
1,1028,68422
1,1029,68455
1,1030,68425
1,1031,68364
1,1032,68320
1,1033,68314
1,1034,68418
1,1035,68288
1,1036,68226
1,1037,68246
1,1038,68284
1,1039,68152
1,1040,68153
1,1041,68174
1,1042,68153
1,1043,68114
1,1044,68088
1,1045,68058
1,1046,68072
1,1047,68083
1,1048,68009
1,1049,68059
1,1050,67875
1,1051,67945
1,1052,68128
1,1053,67853
1,1054,67957
1,1055,67925
1,1056,67936
1,1057,68001
1,1058,67903
1,1059,67947
1,1060,67805
1,1061,67872
1,1062,67893
1,1063,67975
1,1064,68003
1,1065,68067
1,1066,68075
1,1067,68022
1,1068,68036
1,1069,67919
1,1070,67850
1,1071,67691
1,1072,67748
1,1073,67649
1,1074,67628
1,1075,67684
1,1076,67619
1,1077,67520
1,1078,67602
1,1079,67582
1,1080,67628
1,1081,67685
1,1082,67687
1,1083,67596
1,1084,67598
1,1085,67643
1,1086,67546
1,1087,67501
1,1088,67535
1,1089,67579
1,1090,67476
1,1091,67504
1,1092,67528
1,1093,67377
1,1094,67597
1,1095,67711
1,1096,67568
1,1097,67443
1,1098,67499
1,1099,67596
1,1100,67582
1,1101,67493
1,1102,67433
1,1103,67616
1,1104,67591
1,1105,67513
1,1106,67477
1,1107,67512
1,1108,67416
1,1109,67487
1,1110,67492
1,1111,67266
1,1112,67354
1,1113,67382
1,1114,67389
1,1115,67540
1,1116,67396
1,1117,67472
1,1118,67540
1,1119,67501
1,1120,67578
1,1121,67528
1,1122,67597
1,1123,67690
1,1124,67753
1,1125,67712
1,1126,67536
1,1127,67546
1,1128,67626
1,1129,67587
1,1130,67619
1,1131,67530
1,1132,67560
1,1133,67446
1,1134,67546
1,1135,67496
1,1136,67453
1,1137,67393
1,1138,67384
1,1139,67394
1,1140,67297
1,1141,67341
1,1142,67427
1,1143,67261
1,1144,67340
1,1145,67237
1,1146,67895
1,1147,67213
1,1148,67200
1,1149,67228
1,1150,67231
1,1151,67263
1,1152,67180
1,1153,67234
1,1154,67187
1,1155,67247
1,1156,67173
1,1157,67083
1,1158,67159
1,1159,67145
1,1160,67137
1,1161,67091
1,1162,67007
1,1163,67079
1,1164,67126
1,1165,67060
1,1166,66975
1,1167,67013
1,1168,66960
1,1169,67107
1,1170,67005
1,1171,66934
1,1172,67045
1,1173,67046
1,1174,66996
1,1175,66851
1,1176,66941
1,1177,67035
1,1178,66938
1,1179,67018
1,1180,66947
1,1181,66915
1,1182,67002
1,1183,67109
1,1184,66871
1,1185,66889
1,1186,66865
1,1187,66995
1,1188,66891
1,1189,66866
1,1190,66878
1,1191,66939
1,1192,66864
1,1193,66928
1,1194,66917
1,1195,66843
1,1196,66904
1,1197,66839
1,1198,66853
1,1199,66904
1,1200,66836
1,1201,66814
1,1202,66796
1,1203,66754
1,1204,66863
1,1205,66859
1,1206,66766
1,1207,66811
1,1208,66846
1,1209,66810
1,1210,66690
1,1211,66799
1,1212,66884
1,1213,66802
1,1214,66787
1,1215,66717
1,1216,66749
1,1217,66743
1,1218,66798
1,1219,66910
1,1220,66854
1,1221,66680
1,1222,66752
1,1223,66937
1,1224,66755
1,1225,66571
1,1226,66679
1,1227,66658
1,1228,66697
1,1229,66768
1,1230,66779
1,1231,66765
1,1232,66786
1,1233,66737
1,1234,66647
1,1235,66683
1,1236,66778
1,1237,66584
1,1238,66539
1,1239,66646
1,1240,66686
1,1241,66670
1,1242,66633
1,1243,66547
1,1244,66663
1,1245,66627
1,1246,66523
1,1247,66732
1,1248,66542
1,1249,66645
1,1250,66589
1,1251,66763
1,1252,66642
1,1253,66827
1,1254,66696
1,1255,66597
1,1256,66627
1,1257,66688
1,1258,66551
1,1259,66570
1,1260,66569
1,1261,66561
1,1262,66566
1,1263,66536
1,1264,66517
1,1265,66559
1,1266,66533
1,1267,66518
1,1268,66589
1,1269,66569
1,1270,66417
1,1271,66364
1,1272,66424
1,1273,66400
1,1274,66522
1,1275,66454
1,1276,66487
1,1277,66546
1,1278,66436
1,1279,66440
1,1280,66542
1,1281,66551
1,1282,66428
1,1283,66410
1,1284,66441
1,1285,66407
1,1286,66362
1,1287,66331
1,1288,66429
1,1289,66408
1,1290,66308
1,1291,66344
1,1292,66237
1,1293,66496
1,1294,66288
1,1295,66270
1,1296,66301
1,1297,66262
1,1298,66316
1,1299,66268
1,1300,66194
1,1301,66285
1,1302,66150
1,1303,66296
1,1304,66415
1,1305,66539
1,1306,66269
1,1307,66139
1,1308,66218
1,1309,66157
1,1310,66174
1,1311,66287
1,1312,66205
1,1313,66241
1,1314,66067
1,1315,66318
1,1316,66222
1,1317,66124
1,1318,66100
1,1319,66236
1,1320,66167
1,1321,66174
1,1322,66210
1,1323,66118
1,1324,66123
1,1325,66131
1,1326,66163
1,1327,66138
1,1328,66051
1,1329,66031
1,1330,66071
1,1331,65949
1,1332,66045
1,1333,65907
1,1334,65975
1,1335,65988
1,1336,65957
1,1337,65971
1,1338,65751
1,1339,65626
1,1340,74279
